7996.40093	0.000002515
7994.47223	0.000002934
7992.54353	0.000004456
7990.61483	0.000005222
7988.68612	0.000004343
7986.75742	0.000001983
7984.82872	0.000002324
7982.90002	0.000002539
7980.97131	0.000001575
7979.04261	0.000002848
7977.11391	0.000002556
7975.18520	0.000003516
7973.25650	0.000003388
7971.32780	0.000003652
7969.39910	0.000004087
7967.47039	0.000003060
7965.54169	0.000001532
7963.61299	0.000003026
7961.68429	0.000004258
7959.75558	0.000004068
7957.82688	0.000003386
7955.89818	0.000002392
7953.96948	0.000004136
7952.04077	0.000005355
7950.11207	0.000005613
7948.18337	0.000005832
7946.25467	0.000004802
7944.32596	0.000004493
7942.39726	0.000007110
7940.46856	0.000007495
7938.53986	0.000006765
7936.61115	0.000005904
7934.68245	0.000004876
7932.75375	0.000004310
7930.82505	0.000003824
7928.89634	0.000003357
7926.96764	0.000003891
7925.03894	0.000005600
7923.11024	0.000004687
7921.18153	0.000003976
7919.25283	0.000005687
7917.32413	0.000007849
7915.39542	0.000007717
7913.46672	0.000005806
7911.53802	0.000006081
7909.60932	0.000005842
7907.68061	0.000004638
7905.75191	0.000004593
7903.82321	0.000005537
7901.89451	0.000004574
7899.96580	0.000004585
7898.03710	0.000005589
7896.10840	0.000004748
7894.17970	0.000004373
7892.25099	0.000004685
7890.32229	0.000005332
7888.39359	0.000004681
7886.46489	0.000001832
7884.53618	0.000004078
7882.60748	0.000003915
7880.67878	0.000001754
7878.75008	0.000002190
7876.82137	0.000003211
7874.89267	0.000004338
7872.96397	0.000004471
7871.03527	0.000005017
7869.10656	0.000005277
7867.17786	0.000005192
7865.24916	0.000005521
7863.32045	0.000006343
7861.39175	0.000005240
7859.46305	0.000002178
7857.53435	0.000001129
7855.60564	0.000004232
7853.67694	0.000007291
7851.74824	0.000008167
7849.81954	0.000005603
7847.89083	0.000003275
7845.96213	0.000001178
7844.03343	0.000002483
7842.10473	0.000003582
7840.17602	0.000002792
7838.24732	0.000004212
7836.31862	0.000006297
7834.38992	0.000005657
7832.46121	0.000005998
7830.53251	0.000005727
7828.60381	0.000003717
7826.67511	0.000003135
7824.74640	0.000003526
7822.81770	0.000003921
7820.88900	0.000003410
7818.96030	0.000004342
7817.03159	0.000003784
7815.10289	0.000002121
7813.17419	0.000002315
7811.24548	0.000003610
7809.31678	0.000003441
7807.38808	0.000002313
7805.45938	0.000002991
7803.53067	0.000003479
7801.60197	0.000001650
7799.67327	0.000002567
7797.74457	0.000003591
7795.81586	0.000004569
7793.88716	0.000003471
7791.95846	0.000002470
7790.02976	0.000004696
7788.10105	0.000004150
7786.17235	0.000002029
7784.24365	0.000002751
7782.31495	0.000003264
7780.38624	0.000003132
7778.45754	0.000002683
7776.52884	0.000002006
7774.60014	0.000003048
7772.67143	0.000006122
7770.74273	0.000005935
7768.81403	0.000005213
7766.88533	0.000004478
7764.95662	0.000002300
7763.02792	0.000004334
7761.09922	0.000004504
7759.17052	0.000006415
7757.24181	0.000006826
7755.31311	0.000005254
7753.38441	0.000004650
7751.45570	0.000003896
7749.52700	0.000002828
7747.59830	0.000003203
7745.66960	0.000005598
7743.74089	0.000004371
7741.81219	0.000005978
7739.88349	0.000008312
7737.95479	0.000006721
7736.02608	0.000002853
7734.09738	0.000003854
7732.16868	0.000004908
7730.23998	0.000004458
7728.31127	0.000004155
7726.38257	0.000005065
7724.45387	0.000007328
7722.52517	0.000008115
7720.59646	0.000007072
7718.66776	0.000006857
7716.73906	0.000004837
7714.81036	0.000003270
7712.88165	0.000004431
7710.95295	0.000005681
7709.02425	0.000005121
7707.09555	0.000003636
7705.16684	0.000002170
7703.23814	0.000002276
7701.30944	0.000002266
7699.38073	0.000001431
7697.45203	0.000003141
7695.52333	0.000004503
7693.59463	0.000004232
7691.66592	0.000002469
7689.73722	0.000001584
7687.80852	0.000002034
7685.87982	0.000004739
7683.95111	0.000005813
7682.02241	0.000005314
7680.09371	0.000005302
7678.16501	0.000005668
7676.23630	0.000005097
7674.30760	0.000003746
7672.37890	0.000004179
7670.45020	0.000003634
7668.52149	0.000004857
7666.59279	0.000006515
7664.66409	0.000006521
7662.73539	0.000003723
7660.80668	0.000002733
7658.87798	0.000006232
7656.94928	0.000007307
7655.02058	0.000004527
7653.09187	0.000005121
7651.16317	0.000003871
7649.23447	0.000002769
7647.30576	0.000003090
7645.37706	0.000005243
7643.44836	0.000005266
7641.51966	0.000005193
7639.59095	0.000003138
7637.66225	0.000001393
7635.73355	0.000002654
7633.80485	0.000001861
7631.87614	0.000001169
7629.94744	0.000004030
7628.01874	0.000005791
7626.09004	0.000005285
7624.16133	0.000004441
7622.23263	0.000004231
7620.30393	0.000003411
7618.37523	0.000000759
7616.44652	0.000002885
7614.51782	0.000002951
7612.58912	0.000002938
7610.66042	0.000004661
7608.73171	0.000002867
7606.80301	0.000002062
7604.87431	0.000003055
7602.94561	0.000004064
7601.01690	0.000004260
7599.08820	0.000004772
7597.15950	0.000003270
7595.23079	0.000003799
7593.30209	0.000006151
7591.37339	0.000006507
7589.44469	0.000004194
7587.51598	0.000004421
7585.58728	0.000007477
7583.65858	0.000006479
7581.72988	0.000002807
7579.80117	0.000002675
7577.87247	0.000001817
7575.94377	0.000003639
7574.01507	0.000005692
7572.08636	0.000005836
7570.15766	0.000005761
7568.22896	0.000004703
7566.30026	0.000003466
7564.37155	0.000003878
7562.44285	0.000001964
7560.51415	0.000002372
7558.58545	0.000004547
7556.65674	0.000005931
7554.72804	0.000006650
7552.79934	0.000007190
7550.87064	0.000008390
7548.94193	0.000007543
7547.01323	0.000005264
7545.08453	0.000003953
7543.15583	0.000003255
7541.22712	0.000002192
7539.29842	0.000002799
7537.36972	0.000003804
7535.44101	0.000004254
7533.51231	0.000003902
7531.58361	0.000003886
7529.65491	0.000003999
7527.72620	0.000004329
7525.79750	0.000004558
7523.86880	0.000004718
7521.94010	0.000004679
7520.01139	0.000003194
7518.08269	0.000004952
7516.15399	0.000006476
7514.22529	0.000005580
7512.29658	0.000003664
7510.36788	0.000003395
7508.43918	0.000005304
7506.51048	0.000004643
7504.58177	0.000004617
7502.65307	0.000003733
7500.72437	0.000004825
7498.79567	0.000006444
7496.86696	0.000006825
7494.93826	0.000006219
7493.00956	0.000006242
7491.08086	0.000005790
7489.15215	0.000005738
7487.22345	0.000005543
7485.29475	0.000003292
7483.36604	0.000001715
7481.43734	0.000002072
7479.50864	0.000003990
7477.57994	0.000004066
7475.65123	0.000004881
7473.72253	0.000008228
7471.79383	0.000008313
7469.86513	0.000006934
7467.93642	0.000007063
7466.00772	0.000008556
7464.07902	0.000008145
7462.15032	0.000005120
7460.22161	0.000004083
7458.29291	0.000006403
7456.36421	0.000006171
7454.43551	0.000004502
7452.50680	0.000008420
7450.57810	0.000008023
7448.64940	0.000003217
7446.72070	0.000003859
7444.79199	0.000004155
7442.86329	0.000004404
7440.93459	0.000005076
7439.00589	0.000004847
7437.07718	0.000003497
7435.14848	0.000004693
7433.21978	0.000006465
7431.29107	0.000006334
7429.36237	0.000004053
7427.43367	0.000003007
7425.50497	0.000004559
7423.57626	0.000004990
7421.64756	0.000005267
7419.71886	0.000004838
7417.79016	0.000005708
7415.86145	0.000005743
7413.93275	0.000004008
7412.00405	0.000004040
7410.07535	0.000005500
7408.14664	0.000004599
7406.21794	0.000004264
7404.28924	0.000004769
7402.36054	0.000004884
7400.43183	0.000002859
7398.50313	0.000001584
7396.57443	0.000000806
7394.64573	0.000002358
7392.71702	0.000004076
7390.78832	0.000004156
7388.85962	0.000003718
7386.93092	0.000005067
7385.00221	0.000006407
7383.07351	0.000006835
7381.14481	0.000006831
7379.21611	0.000006088
7377.28740	0.000006935
7375.35870	0.000006926
7373.43000	0.000004566
7371.50129	0.000003299
7369.57259	0.000003974
7367.64389	0.000004403
7365.71519	0.000003781
7363.78648	0.000003882
7361.85778	0.000005632
7359.92908	0.000005196
7358.00038	0.000003731
7356.07167	0.000003486
7354.14297	0.000007107
7352.21427	0.000009123
7350.28557	0.000007136
7348.35686	0.000004344
7346.42816	0.000003109
7344.49946	0.000004512
7342.57076	0.000004852
7340.64205	0.000002796
7338.71335	0.000002460
7336.78465	0.000001706
7334.85595	0.000002346
7332.92724	0.000003428
7330.99854	0.000004042
7329.06984	0.000002649
7327.14114	0.000001108
7325.21243	0.000003492
7323.28373	0.000003303
7321.35503	0.000002548
7319.42632	0.000004106
7317.49762	0.000005292
7315.56892	0.000005891
7313.64022	0.000005049
7311.71151	0.000002251
7309.78281	0.000005905
7307.85411	0.000006241
7305.92541	0.000003649
7303.99670	0.000002093
7302.06800	0.000004467
7300.13930	0.000006374
7298.21060	0.000008897
7296.28189	0.000008890
7294.35319	0.000007368
7292.42449	0.000006873
7290.49579	0.000007274
7288.56708	0.000007344
7286.63838	0.000005551
7284.70968	0.000003472
7282.78098	0.000001071
7280.85227	0.000002595
7278.92357	0.000005132
7276.99487	0.000006767
7275.06617	0.000006220
7273.13746	0.000004096
7271.20876	0.000004085
7269.28006	0.000005336
7267.35135	0.000005804
7265.42265	0.000005834
7263.49395	0.000006420
7261.56525	0.000007393
7259.63654	0.000006029
7257.70784	0.000006691
7255.77914	0.000007289
7253.85044	0.000006792
7251.92173	0.000005517
7249.99303	0.000004527
7248.06433	0.000006070
7246.13563	0.000006363
7244.20692	0.000006236
7242.27822	0.000005165
7240.34952	0.000004054
7238.42082	0.000003830
7236.49211	0.000004299
7234.56341	0.000004050
7232.63471	0.000004002
7230.70601	0.000003407
7228.77730	0.000004049
7226.84860	0.000003354
7224.91990	0.000001654
7222.99120	0.000003996
7221.06249	0.000006104
7219.13379	0.000005946
7217.20509	0.000003125
7215.27638	0.000002791
7213.34768	0.000004301
7211.41898	0.000006383
7209.49028	0.000005650
7207.56157	0.000003559
7205.63287	0.000001930
7203.70417	0.000004132
7201.77547	0.000007194
7199.84676	0.000005859
7197.91806	0.000003878
7195.98936	0.000003822
7194.06066	0.000003604
7192.13195	0.000003785
7190.20325	0.000006011
7188.27455	0.000008119
7186.34585	0.000010760
7184.41714	0.000008768
7182.48844	0.000004924
7180.55974	0.000005330
7178.63104	0.000004480
7176.70233	0.000004212
7174.77363	0.000005132
7172.84493	0.000003299
7170.91623	0.000003218
7168.98752	0.000004031
7167.05882	0.000004072
7165.13012	0.000003228
7163.20142	0.000001936
7161.27271	0.000002031
7159.34401	0.000003351
7157.41531	0.000004450
7155.48660	0.000003377
7153.55790	0.000003882
7151.62920	0.000004944
7149.70050	0.000005273
7147.77179	0.000005918
7145.84309	0.000005542
7143.91439	0.000003250
7141.98569	0.000002464
7140.05698	0.000002191
7138.12828	0.000003460
7136.19958	0.000004375
7134.27088	0.000005381
7132.34217	0.000007187
7130.41347	0.000008726
7128.48477	0.000009063
7126.55607	0.000008365
7124.62736	0.000005844
7122.69866	0.000002569
7120.76996	0.000000833
7118.84126	0.000001405
7116.91255	0.000003099
7114.98385	0.000005656
7113.05515	0.000007707
7111.12645	0.000007609
7109.19774	0.000005625
7107.26904	0.000004803
7105.34034	0.000004990
7103.41163	0.000003320
7101.48293	0.000002115
7099.55423	0.000003107
7097.62553	0.000002611
7095.69682	0.000003716
7093.76812	0.000006757
7091.83942	0.000008590
7089.91072	0.000007057
7087.98201	0.000004586
7086.05331	0.000003787
7084.12461	0.000003029
7082.19591	0.000003496
7080.26720	0.000005260
7078.33850	0.000005680
7076.40980	0.000004645
7074.48110	0.000004214
7072.55239	0.000004494
7070.62369	0.000006904
7068.69499	0.000008217
7066.76629	0.000007036
7064.83758	0.000006132
7062.90888	0.000005433
7060.98018	0.000003721
7059.05148	0.000003618
7057.12277	0.000002800
7055.19407	0.000004804
7053.26537	0.000004645
7051.33666	0.000003239
7049.40796	0.000001879
7047.47926	0.000001189
7045.55056	0.000001392
7043.62185	0.000002072
7041.69315	0.000002590
7039.76445	0.000003390
7037.83575	0.000004280
7035.90704	0.000005392
7033.97834	0.000006028
7032.04964	0.000010274
7030.12094	0.000012344
7028.19223	0.000010325
7026.26353	0.000005802
7024.33483	0.000002104
7022.40613	0.000002010
7020.47742	0.000004800
7018.54872	0.000006753
7016.62002	0.000005462
7014.69132	0.000004206
7012.76261	0.000004970
7010.83391	0.000005184
7008.90521	0.000006463
7006.97651	0.000007785
7005.04780	0.000005722
7003.11910	0.000004095
7001.19040	0.000006101
6999.26169	0.000007415
6997.33299	0.000005612
6995.40429	0.000003602
6993.47559	0.000003149
6991.54688	0.000005867
6989.61818	0.000007278
6987.68948	0.000005611
6985.76078	0.000003150
6983.83207	0.000003097
6981.90337	0.000002492
6979.97467	0.000002209
6978.04597	0.000005598
6976.11726	0.000006606
6974.18856	0.000006110
6972.25986	0.000006285
6970.33116	0.000005514
6968.40245	0.000003689
6966.47375	0.000004408
6964.54505	0.000005379
6962.61635	0.000004734
6960.68764	0.000004713
6958.75894	0.000005456
6956.83024	0.000006926
6954.90154	0.000007181
6952.97283	0.000005138
6951.04413	0.000003456
6949.11543	0.000002540
6947.18673	0.000001975
6945.25802	0.000003896
6943.32932	0.000007313
6941.40062	0.000008926
6939.47191	0.000007530
6937.54321	0.000006052
6935.61451	0.000006617
6933.68581	0.000006114
6931.75710	0.000004128
6929.82840	0.000004935
6927.89970	0.000004619
6925.97100	0.000005662
6924.04229	0.000004943
6922.11359	0.000005522
6920.18489	0.000005230
6918.25619	0.000006981
6916.32748	0.000006620
6914.39878	0.000005312
6912.47008	0.000005252
6910.54138	0.000006567
6908.61267	0.000007054
6906.68397	0.000008764
6904.75527	0.000009743
6902.82657	0.000008355
6900.89786	0.000008449
6898.96916	0.000010427
6897.04046	0.000008929
6895.11176	0.000005390
6893.18305	0.000007127
6891.25435	0.000007020
6889.32565	0.000005599
6887.39694	0.000007477
6885.46824	0.000008478
6883.53954	0.000006968
6881.61084	0.000005344
6879.68213	0.000006492
6877.75343	0.000007425
6875.82473	0.000005534
6873.89603	0.000004950
6871.96732	0.000006351
6870.03862	0.000008957
6868.10992	0.000011879
6866.18122	0.000012410
6864.25251	0.000010144
6862.32381	0.000007899
6860.39511	0.000008764
6858.46641	0.000009104
6856.53770	0.000008034
6854.60900	0.000006637
6852.68030	0.000005276
6850.75160	0.000005839
6848.82289	0.000008305
6846.89419	0.000009173
6844.96549	0.000009216
6843.03679	0.000009085
6841.10808	0.000008467
6839.17938	0.000007881
6837.25068	0.000005741
6835.32197	0.000004219
6833.39327	0.000003181
6831.46457	0.000004944
6829.53587	0.000008770
6827.60716	0.000009363
6825.67846	0.000007227
6823.74976	0.000006581
6821.82106	0.000008592
6819.89235	0.000010203
6817.96365	0.000009429
6816.03495	0.000008272
6814.10625	0.000008683
6812.17754	0.000008960
6810.24884	0.000008887
6808.32014	0.000008927
6806.39144	0.000006790
6804.46273	0.000005082
6802.53403	0.000003169
6800.60533	0.000004836
6798.67663	0.000006122
6796.74792	0.000008324
6794.81922	0.000009556
6792.89052	0.000008870
6790.96182	0.000008385
6789.03311	0.000008494
6787.10441	0.000009138
6785.17571	0.000011221
6783.24701	0.000012220
6781.31830	0.000010739
6779.38960	0.000008099
6777.46090	0.000006848
6775.53219	0.000006301
6773.60349	0.000006738
6771.67479	0.000007760
6769.74609	0.000008188
6767.81738	0.000010205
6765.88868	0.000010586
6763.95998	0.000007190
6762.03128	0.000006327
6760.10257	0.000008725
6758.17387	0.000009297
6756.24517	0.000006508
6754.31647	0.000006543
6752.38776	0.000006867
6750.45906	0.000005573
6748.53036	0.000005400
6746.60166	0.000005955
6744.67295	0.000009881
6742.74425	0.000012175
6740.81555	0.000013148
6738.88685	0.000013657
6736.95814	0.000012443
6735.02944	0.000011333
6733.10074	0.000012886
6731.17204	0.000014198
6729.24333	0.000012779
6727.31463	0.000010596
6725.38593	0.000009336
6723.45722	0.000009288
6721.52852	0.000009680
6719.59982	0.000009712
6717.67112	0.000008269
6715.74241	0.000007728
6713.81371	0.000010492
6711.88501	0.000012590
6709.95631	0.000011959
6708.02760	0.000011361
6706.09890	0.000011122
6704.17020	0.000008987
6702.24150	0.000006487
6700.31279	0.000006501
6698.38409	0.000008614
6696.45539	0.000009881
6694.52669	0.000011352
6692.59798	0.000014304
6690.66928	0.000016378
6688.74058	0.000016043
6686.81188	0.000014214
6684.88317	0.000011008
6682.95447	0.000007651
6681.02577	0.000006733
6679.09707	0.000008034
6677.16836	0.000010895
6675.23966	0.000012167
6673.31096	0.000012048
6671.38225	0.000013592
6669.45355	0.000014943
6667.52485	0.000013111
6665.59615	0.000009680
6663.66744	0.000007836
6661.73874	0.000007387
6659.81004	0.000008032
6657.88134	0.000009711
6655.95263	0.000011250
6654.02393	0.000010827
6652.09523	0.000009590
6650.16653	0.000009461
6648.23782	0.000009324
6646.30912	0.000008445
6644.38042	0.000008776
6642.45172	0.000009780
6640.52301	0.000010082
6638.59431	0.000010596
6636.66561	0.000011164
6634.73691	0.000011695
6632.80820	0.000012194
6630.87950	0.000011475
6628.95080	0.000010147
6627.02210	0.000010286
6625.09339	0.000011340
6623.16469	0.000013654
6621.23599	0.000015700
6619.30728	0.000014109
6617.37858	0.000011122
6615.44988	0.000010266
6613.52118	0.000011551
6611.59247	0.000012172
6609.66377	0.000011236
6607.73507	0.000010823
6605.80637	0.000011243
6603.87766	0.000011175
6601.94896	0.000010324
6600.02026	0.000009371
6598.09156	0.000010096
6596.16285	0.000012018
6594.23415	0.000012478
6592.30545	0.000011326
6590.37675	0.000010947
6588.44804	0.000012671
6586.51934	0.000013739
6584.59064	0.000013143
6582.66194	0.000013011
6580.73323	0.000013430
6578.80453	0.000014816
6576.87583	0.000017649
6574.94713	0.000018870
6573.01842	0.000015449
6571.08972	0.000011698
6569.16102	0.000012053
6567.23232	0.000014247
6565.30361	0.000017953
6563.37491	0.000019824
6561.44621	0.000018162
6559.51750	0.000017101
6557.58880	0.000017849
6555.66010	0.000015640
6553.73140	0.000012091
6551.80269	0.000011505
6549.87399	0.000012280
6547.94529	0.000012078
6546.01659	0.000012940
6544.08788	0.000015013
6542.15918	0.000014253
6540.23048	0.000009979
6538.30178	0.000008174
6536.37307	0.000010669
6534.44437	0.000014821
6532.51567	0.000015702
6530.58697	0.000014949
6528.65826	0.000015430
6526.72956	0.000014989
6524.80086	0.000013083
6522.87216	0.000012969
6520.94345	0.000014143
6519.01475	0.000013566
6517.08605	0.000013539
6515.15735	0.000013675
6513.22864	0.000012994
6511.29994	0.000014568
6509.37124	0.000017088
6507.44253	0.000016817
6505.51383	0.000016181
6503.58513	0.000015633
6501.65643	0.000012213
6499.72772	0.000008439
6497.79902	0.000007961
6495.87032	0.000009554
6493.94162	0.000009707
6492.01291	0.000008744
6490.08421	0.000010263
6488.15551	0.000013344
6486.22681	0.000014050
6484.29810	0.000013223
6482.36940	0.000014545
6480.44070	0.000016620
6478.51200	0.000017559
6476.58329	0.000016175
6474.65459	0.000014635
6472.72589	0.000014778
6470.79719	0.000015084
6468.86848	0.000015241
6466.93978	0.000016335
6465.01108	0.000016705
6463.08238	0.000014904
6461.15367	0.000013652
6459.22497	0.000015645
6457.29627	0.000018763
6455.36756	0.000019438
6453.43886	0.000018492
6451.51016	0.000018200
6449.58146	0.000017070
6447.65275	0.000014270
6445.72405	0.000013969
6443.79535	0.000015709
6441.86665	0.000015746
6439.93794	0.000014703
6438.00924	0.000013751
6436.08054	0.000012463
6434.15184	0.000013075
6432.22313	0.000015660
6430.29443	0.000016702
6428.36573	0.000016060
6426.43703	0.000016446
6424.50832	0.000017719
6422.57962	0.000017724
6420.65092	0.000017374
6418.72222	0.000018987
6416.79351	0.000020541
6414.86481	0.000020112
6412.93611	0.000019291
6411.00741	0.000019461
6409.07870	0.000019512
6407.15000	0.000019142
6405.22130	0.000019492
6403.29260	0.000020796
6401.36389	0.000021149
6399.43519	0.000019379
6397.50649	0.000017737
6395.57778	0.000017890
6393.64908	0.000018860
6391.72038	0.000019712
6389.79168	0.000021912
6387.86297	0.000023381
6385.93427	0.000021933
6384.00557	0.000019438
6382.07687	0.000018633
6380.14816	0.000018108
6378.21946	0.000016747
6376.29076	0.000016251
6374.36206	0.000017281
6372.43335	0.000018533
6370.50465	0.000018393
6368.57595	0.000016209
6366.64725	0.000013824
6364.71854	0.000014259
6362.78984	0.000016611
6360.86114	0.000017703
6358.93244	0.000017396
6357.00373	0.000015981
6355.07503	0.000015637
6353.14633	0.000017526
6351.21763	0.000019268
6349.28892	0.000019684
6347.36022	0.000019746
6345.43152	0.000021142
6343.50281	0.000022244
6341.57411	0.000020147
6339.64541	0.000016713
6337.71671	0.000016042
6335.78800	0.000016801
6333.85930	0.000016348
6331.93060	0.000017298
6330.00190	0.000019844
6328.07319	0.000021404
6326.14449	0.000020160
6324.21579	0.000017880
6322.28709	0.000015884
6320.35838	0.000014219
6318.42968	0.000015141
6316.50098	0.000017245
6314.57228	0.000017301
6312.64357	0.000017568
6310.71487	0.000018381
6308.78617	0.000019671
6306.85747	0.000021795
6304.92876	0.000022435
6303.00006	0.000021190
6301.07136	0.000020095
6299.14266	0.000019300
6297.21395	0.000018598
6295.28525	0.000019208
6293.35655	0.000021472
6291.42784	0.000022701
6289.49914	0.000021751
6287.57044	0.000021458
6285.64174	0.000021074
6283.71303	0.000019086
6281.78433	0.000018543
6279.85563	0.000020740
6277.92693	0.000022968
6275.99822	0.000024332
6274.06952	0.000023489
6272.14082	0.000019966
6270.21212	0.000019342
6268.28341	0.000022999
6266.35471	0.000025033
6264.42601	0.000024381
6262.49731	0.000025117
6260.56860	0.000027027
6258.63990	0.000025751
6256.71120	0.000021693
6254.78250	0.000019027
6252.85379	0.000019135
6250.92509	0.000019440
6248.99639	0.000018960
6247.06769	0.000019633
6245.13898	0.000022194
6243.21028	0.000024130
6241.28158	0.000024443
6239.35287	0.000024125
6237.42417	0.000023564
6235.49547	0.000023290
6233.56677	0.000023099
6231.63806	0.000023366
6229.70936	0.000024955
6227.78066	0.000026022
6225.85196	0.000026029
6223.92325	0.000026692
6221.99455	0.000026790
6220.06585	0.000025355
6218.13715	0.000025595
6216.20844	0.000027011
6214.27974	0.000026798
6212.35104	0.000026579
6210.42234	0.000027969
6208.49363	0.000028599
6206.56493	0.000027606
6204.63623	0.000026868
6202.70753	0.000026688
6200.77882	0.000024912
6198.85012	0.000022915
6196.92142	0.000024091
6194.99272	0.000027428
6193.06401	0.000029479
6191.13531	0.000028569
6189.20661	0.000025925
6187.27791	0.000024822
6185.34920	0.000026782
6183.42050	0.000028316
6181.49180	0.000027841
6179.56309	0.000028039
6177.63439	0.000029287
6175.70569	0.000029815
6173.77699	0.000029279
6171.84828	0.000028534
6169.91958	0.000027831
6167.99088	0.000028926
6166.06218	0.000030564
6164.13347	0.000030453
6162.20477	0.000029826
6160.27607	0.000030170
6158.34737	0.000030647
6156.41866	0.000029974
6154.48996	0.000030276
6152.56126	0.000032462
6150.63256	0.000033190
6148.70385	0.000032681
6146.77515	0.000032814
6144.84645	0.000031990
6142.91775	0.000029780
6140.98904	0.000028596
6139.06034	0.000029320
6137.13164	0.000029608
6135.20294	0.000028252
6133.27423	0.000026445
6131.34553	0.000026411
6129.41683	0.000028264
6127.48812	0.000030768
6125.55942	0.000032808
6123.63072	0.000031823
6121.70202	0.000028163
6119.77331	0.000026023
6117.84461	0.000026130
6115.91591	0.000027411
6113.98721	0.000029586
6112.05850	0.000031183
6110.12980	0.000029548
6108.20110	0.000027204
6106.27240	0.000028488
6104.34369	0.000031468
6102.41499	0.000033113
6100.48629	0.000033383
6098.55759	0.000032912
6096.62888	0.000033273
6094.70018	0.000034377
6092.77148	0.000034751
6090.84278	0.000033846
6088.91407	0.000032859
6086.98537	0.000033037
6085.05667	0.000034247
6083.12797	0.000035708
6081.19926	0.000036556
6079.27056	0.000036965
6077.34186	0.000038575
6075.41315	0.000039752
6073.48445	0.000037431
6071.55575	0.000034589
6069.62705	0.000034180
6067.69834	0.000033984
6065.76964	0.000033622
6063.84094	0.000034335
6061.91224	0.000034310
6059.98353	0.000032880
6058.05483	0.000032476
6056.12613	0.000034336
6054.19743	0.000037199
6052.26872	0.000039195
6050.34002	0.000038141
6048.41132	0.000034087
6046.48262	0.000030351
6044.55391	0.000030360
6042.62521	0.000033428
6040.69651	0.000035285
6038.76781	0.000034345
6036.83910	0.000034012
6034.91040	0.000035408
6032.98170	0.000037100
6031.05300	0.000038597
6029.12429	0.000037839
6027.19559	0.000035018
6025.26689	0.000033024
6023.33819	0.000032488
6021.40948	0.000031115
6019.48078	0.000029732
6017.55208	0.000030740
6015.62337	0.000032146
6013.69467	0.000032938
6011.76597	0.000034428
6009.83727	0.000035968
6007.90856	0.000036201
6005.97986	0.000035666
6004.05116	0.000035306
6002.12246	0.000035072
6000.19375	0.000035720
5998.26505	0.000037500
5996.33635	0.000039147
5994.40765	0.000039232
5992.47894	0.000037580
5990.55024	0.000036256
5988.62154	0.000036267
5986.69284	0.000036829
5984.76413	0.000037367
5982.83543	0.000037940
5980.90673	0.000038568
5978.97803	0.000039586
5977.04932	0.000041347
5975.12062	0.000042039
5973.19192	0.000040838
5971.26322	0.000040729
5969.33451	0.000042308
5967.40581	0.000041978
5965.47711	0.000039096
5963.54840	0.000036432
5961.61970	0.000036019
5959.69100	0.000037440
5957.76230	0.000038235
5955.83359	0.000037284
5953.90489	0.000038314
5951.97619	0.000041117
5950.04749	0.000042697
5948.11878	0.000043502
5946.19008	0.000043088
5944.26138	0.000042690
5942.33268	0.000044015
5940.40397	0.000045474
5938.47527	0.000045835
5936.54657	0.000046460
5934.61787	0.000047404
5932.68916	0.000047656
5930.76046	0.000048302
5928.83176	0.000048382
5926.90306	0.000046395
5924.97435	0.000045168
5923.04565	0.000046470
5921.11695	0.000047150
5919.18825	0.000045111
5917.25954	0.000042795
5915.33084	0.000043138
5913.40214	0.000044511
5911.47343	0.000044319
5909.54473	0.000043054
5907.61603	0.000041587
5905.68733	0.000039868
5903.75862	0.000039188
5901.82992	0.000040699
5899.90122	0.000043408
5897.97252	0.000045696
5896.04381	0.000045140
5894.11511	0.000041293
5892.18641	0.000038143
5890.25771	0.000040197
5888.32900	0.000045125
5886.40030	0.000046892
5884.47160	0.000045618
5882.54290	0.000044889
5880.61419	0.000046063
5878.68549	0.000048495
5876.75679	0.000049548
5874.82809	0.000048103
5872.89938	0.000046205
5870.97068	0.000046009
5869.04198	0.000046927
5867.11328	0.000047289
5865.18457	0.000046729
5863.25587	0.000046858
5861.32717	0.000049714
5859.39846	0.000052226
5857.46976	0.000050392
5855.54106	0.000047803
5853.61236	0.000048560
5851.68365	0.000050533
5849.75495	0.000050362
5847.82625	0.000048788
5845.89755	0.000049157
5843.96884	0.000051494
5842.04014	0.000052630
5840.11144	0.000051368
5838.18274	0.000049103
5836.25403	0.000047946
5834.32533	0.000048968
5832.39663	0.000050929
5830.46793	0.000051255
5828.53922	0.000049370
5826.61052	0.000047933
5824.68182	0.000048784
5822.75312	0.000051270
5820.82441	0.000053066
5818.89571	0.000053745
5816.96701	0.000053698
5815.03831	0.000053042
5813.10960	0.000052857
5811.18090	0.000053365
5809.25220	0.000053763
5807.32350	0.000054011
5805.39479	0.000053704
5803.46609	0.000052704
5801.53739	0.000050920
5799.60868	0.000048308
5797.67998	0.000047122
5795.75128	0.000048166
5793.82258	0.000050214
5791.89387	0.000052344
5789.96517	0.000053636
5788.03647	0.000054002
5786.10777	0.000053896
5784.17906	0.000054007
5782.25036	0.000054130
5780.32166	0.000053425
5778.39296	0.000053914
5776.46425	0.000056863
5774.53555	0.000059095
5772.60685	0.000059539
5770.67815	0.000060776
5768.74944	0.000060907
5766.82074	0.000057887
5764.89204	0.000055439
5762.96334	0.000056429
5761.03463	0.000058012
5759.10593	0.000057956
5757.17723	0.000057128
5755.24853	0.000056145
5753.31982	0.000056115
5751.39112	0.000057607
5749.46242	0.000058217
5747.53371	0.000057119
5745.60501	0.000056511
5743.67631	0.000057212
5741.74761	0.000059185
5739.81890	0.000061222
5737.89020	0.000061396
5735.96150	0.000060539
5734.03280	0.000060258
5732.10409	0.000060227
5730.17539	0.000060670
5728.24669	0.000061826
5726.31799	0.000062059
5724.38928	0.000060059
5722.46058	0.000058204
5720.53188	0.000057893
5718.60318	0.000057792
5716.67447	0.000057939
5714.74577	0.000059554
5712.81707	0.000063405
5710.88837	0.000067699
5708.95966	0.000069800
5707.03096	0.000069073
5705.10226	0.000066375
5703.17356	0.000063783
5701.24485	0.000062013
5699.31615	0.000061015
5697.38745	0.000062093
5695.45874	0.000063036
5693.53004	0.000062112
5691.60134	0.000062028
5689.67264	0.000063827
5687.74393	0.000065372
5685.81523	0.000066187
5683.88653	0.000067639
5681.95783	0.000069856
5680.02912	0.000070867
5678.10042	0.000068568
5676.17172	0.000065724
5674.24302	0.000065937
5672.31431	0.000068224
5670.38561	0.000069632
5668.45691	0.000067806
5666.52821	0.000065540
5664.59950	0.000066664
5662.67080	0.000069157
5660.74210	0.000070137
5658.81340	0.000070135
5656.88469	0.000070619
5654.95599	0.000071272
5653.02729	0.000071182
5651.09859	0.000070436
5649.16988	0.000069124
5647.24118	0.000068337
5645.31248	0.000069258
5643.38378	0.000070653
5641.45507	0.000070813
5639.52637	0.000070469
5637.59767	0.000070551
5635.66896	0.000070778
5633.74026	0.000071483
5631.81156	0.000073348
5629.88286	0.000074852
5627.95415	0.000075007
5626.02545	0.000075845
5624.09675	0.000076659
5622.16805	0.000074832
5620.23934	0.000072381
5618.31064	0.000071963
5616.38194	0.000072446
5614.45324	0.000071664
5612.52453	0.000070694
5610.59583	0.000071550
5608.66713	0.000072983
5606.73843	0.000073017
5604.80972	0.000073328
5602.88102	0.000075065
5600.95232	0.000075422
5599.02362	0.000073551
5597.09491	0.000071561
5595.16621	0.000070537
5593.23751	0.000070951
5591.30881	0.000073136
5589.38010	0.000076814
5587.45140	0.000079334
5585.52270	0.000079491
5583.59399	0.000080833
5581.66529	0.000084241
5579.73659	0.000084304
5577.80789	0.000080706
5575.87918	0.000078706
5573.95048	0.000079545
5572.02178	0.000080134
5570.09308	0.000079506
5568.16437	0.000078906
5566.23567	0.000079465
5564.30697	0.000081154
5562.37827	0.000082657
5560.44956	0.000083023
5558.52086	0.000082392
5556.59216	0.000081761
5554.66346	0.000081811
5552.73475	0.000081647
5550.80605	0.000081585
5548.87735	0.000083215
5546.94865	0.000084461
5545.01994	0.000084001
5543.09124	0.000084819
5541.16254	0.000086836
5539.23384	0.000086733
5537.30513	0.000083963
5535.37643	0.000082152
5533.44773	0.000083806
5531.51902	0.000086334
5529.59032	0.000087797
5527.66162	0.000088775
5525.73292	0.000087769
5523.80421	0.000084436
5521.87551	0.000082450
5519.94681	0.000083100
5518.01811	0.000084104
5516.08940	0.000084305
5514.16070	0.000085490
5512.23200	0.000089194
5510.30330	0.000092183
5508.37459	0.000091930
5506.44589	0.000090172
5504.51719	0.000088522
5502.58849	0.000086192
5500.65978	0.000083436
5498.73108	0.000083479
5496.80238	0.000086316
5494.87368	0.000086719
5492.94497	0.000084361
5491.01627	0.000083739
5489.08757	0.000086120
5487.15887	0.000089008
5485.23016	0.000090770
5483.30146	0.000091832
5481.37276	0.000092332
5479.44405	0.000091879
5477.51535	0.000089798
5475.58665	0.000086676
5473.65795	0.000085680
5471.72924	0.000088302
5469.80054	0.000091620
5467.87184	0.000093356
5465.94314	0.000093689
5464.01443	0.000092032
5462.08573	0.000089101
5460.15703	0.000088494
5458.22833	0.000090969
5456.29962	0.000093714
5454.37092	0.000095252
5452.44222	0.000094843
5450.51352	0.000092210
5448.58481	0.000089089
5446.65611	0.000086518
5444.72741	0.000085078
5442.79871	0.000084881
5440.87000	0.000086932
5438.94130	0.000091697
5437.01260	0.000093856
5435.08390	0.000091355
5433.15519	0.000090512
5431.22649	0.000091799
5429.29779	0.000090865
5427.36909	0.000091130
5425.44038	0.000094873
5423.51168	0.000097533
5421.58298	0.000097759
5419.65427	0.000098453
5417.72557	0.000099242
5415.79687	0.000097239
5413.86817	0.000092527
5411.93946	0.000088607
5410.01076	0.000089433
5408.08206	0.000095099
5406.15336	0.000100360
5404.22465	0.000102970
5402.29595	0.000106875
5400.36725	0.000110867
5398.43855	0.000108684
5396.50984	0.000100724
5394.58114	0.000094918
5392.65244	0.000096077
5390.72374	0.000102436
5388.79503	0.000108431
5386.86633	0.000108746
5384.93763	0.000105873
5383.00893	0.000106954
5381.08022	0.000110308
5379.15152	0.000108463
5377.22282	0.000102815
5375.29412	0.000100732
5373.36541	0.000103874
5371.43671	0.000108983
5369.50801	0.000112303
5367.57930	0.000112504
5365.65060	0.000110822
5363.72190	0.000108898
5361.79320	0.000109650
5359.86449	0.000113054
5357.93579	0.000114343
5356.00709	0.000110938
5354.07839	0.000105538
5352.14968	0.000103940
5350.22098	0.000107397
5348.29228	0.000109179
5346.36358	0.000105477
5344.43487	0.000102256
5342.50617	0.000104482
5340.57747	0.000105620
5338.64877	0.000101779
5336.72006	0.000100824
5334.79136	0.000105061
5332.86266	0.000108442
5330.93396	0.000109543
5329.00525	0.000109838
5327.07655	0.000110814
5325.14785	0.000115128
5323.21915	0.000120830
5321.29044	0.000123732
5319.36174	0.000124769
5317.43304	0.000125543
5315.50433	0.000126233
5313.57563	0.000127403
5311.64693	0.000127392
5309.71823	0.000123729
5307.78952	0.000118560
5305.86082	0.000118220
5303.93212	0.000124632
5302.00342	0.000131433
5300.07471	0.000133524
5298.14601	0.000132261
5296.21731	0.000130497
5294.28861	0.000129597
5292.35990	0.000127708
5290.43120	0.000123112
5288.50250	0.000121120
5286.57380	0.000124065
5284.64509	0.000125672
5282.71639	0.000124995
5280.78769	0.000126279
5278.85899	0.000129105
5276.93028	0.000132055
5275.00158	0.000135402
5273.07288	0.000137253
5271.14418	0.000135458
5269.21547	0.000132826
5267.28677	0.000131563
5265.35807	0.000128018
5263.42937	0.000122406
5261.50066	0.000122117
5259.57196	0.000128641
5257.64326	0.000134930
5255.71455	0.000136330
5253.78585	0.000135092
5251.85715	0.000134627
5249.92845	0.000133445
5247.99974	0.000130160
5246.07104	0.000127522
5244.14234	0.000127633
5242.21364	0.000130871
5240.28493	0.000136163
5238.35623	0.000140481
5236.42753	0.000141866
5234.49883	0.000140524
5232.57012	0.000139104
5230.64142	0.000140157
5228.71272	0.000141034
5226.78402	0.000138769
5224.85531	0.000137631
5222.92661	0.000141741
5220.99791	0.000146406
5219.06921	0.000147035
5217.14050	0.000146490
5215.21180	0.000147615
5213.28310	0.000148410
5211.35440	0.000145938
5209.42569	0.000139800
5207.49699	0.000134446
5205.56829	0.000135809
5203.63958	0.000143675
5201.71088	0.000151063
5199.78218	0.000153542
5197.85348	0.000153258
5195.92477	0.000153848
5193.99607	0.000155748
5192.06737	0.000156411
5190.13867	0.000153966
5188.20996	0.000150870
5186.28126	0.000149654
5184.35256	0.000150861
5182.42386	0.000154976
5180.49515	0.000159204
5178.56645	0.000160716
5176.63775	0.000160588
5174.70905	0.000159965
5172.78034	0.000158658
5170.85164	0.000156697
5168.92294	0.000157443
5166.99424	0.000162267
5165.06553	0.000165838
5163.13683	0.000165497
5161.20813	0.000164396
5159.27943	0.000163853
5157.35072	0.000161990
5155.42202	0.000161035
5153.49332	0.000164293
5151.56461	0.000168299
5149.63591	0.000169926
5147.70721	0.000170780
5145.77851	0.000171643
5143.84980	0.000171208
5141.92110	0.000169686
5139.99240	0.000170286
5138.06370	0.000172889
5136.13499	0.000173310
5134.20629	0.000172412
5132.27759	0.000174485
5130.34889	0.000178365
5128.42018	0.000180652
5126.49148	0.000181382
5124.56278	0.000180874
5122.63408	0.000178913
5120.70537	0.000176880
5118.77667	0.000176212
5116.84797	0.000177557
5114.91927	0.000180061
5112.99056	0.000181042
5111.06186	0.000180195
5109.13316	0.000180265
5107.20446	0.000182642
5105.27575	0.000186117
5103.34705	0.000187873
5101.41835	0.000186782
5099.48964	0.000185171
5097.56094	0.000184507
5095.63224	0.000183879
5093.70354	0.000183790
5091.77483	0.000185301
5089.84613	0.000187663
5087.91743	0.000190057
5085.98873	0.000192032
5084.06002	0.000192621
5082.13132	0.000191868
5080.20262	0.000191313
5078.27392	0.000192253
5076.34521	0.000193694
5074.41651	0.000194293
5072.48781	0.000195441
5070.55911	0.000198379
5068.63040	0.000201239
5066.70170	0.000201567
5064.77300	0.000200208
5062.84430	0.000199963
5060.91559	0.000200419
5058.98689	0.000200127
5057.05819	0.000201131
5055.12949	0.000204058
5053.20078	0.000205738
5051.27208	0.000205760
5049.34338	0.000206182
5047.41468	0.000206778
5045.48597	0.000208165
5043.55727	0.000211940
5041.62857	0.000214133
5039.69986	0.000210598
5037.77116	0.000206402
5035.84246	0.000206996
5033.91376	0.000208568
5031.98505	0.000207953
5030.05635	0.000209480
5028.12765	0.000214686
5026.19895	0.000217726
5024.27024	0.000216590
5022.34154	0.000216525
5020.41284	0.000218766
5018.48414	0.000218786
5016.55543	0.000215647
5014.62673	0.000214024
5012.69803	0.000215966
5010.76933	0.000217826
5008.84062	0.000217718
5006.91192	0.000217400
5004.98322	0.000217946
5003.05452	0.000219041
5001.12581	0.000219643
4999.19711	0.000219452
4997.26841	0.000219996
4995.33971	0.000222044
4993.41100	0.000223846
4991.48230	0.000223961
4989.55360	0.000223385
4987.62489	0.000223341
4985.69619	0.000223853
4983.76749	0.000224137
4981.83879	0.000223353
4979.91008	0.000223347
4977.98138	0.000226706
4976.05268	0.000231361
4974.12398	0.000233413
4972.19527	0.000232309
4970.26657	0.000230151
4968.33787	0.000229520
4966.40917	0.000231865
4964.48046	0.000235609
4962.55176	0.000237685
4960.62306	0.000237202
4958.69436	0.000236162
4956.76565	0.000237847
4954.83695	0.000241898
4952.90825	0.000244207
4950.97955	0.000243963
4949.05084	0.000242548
4947.12214	0.000239836
4945.19344	0.000237885
4943.26474	0.000239182
4941.33603	0.000242301
4939.40733	0.000244672
4937.47863	0.000247418
4935.54992	0.000251772
4933.62122	0.000253954
4931.69252	0.000252421
4929.76382	0.000250941
4927.83511	0.000251178
4925.90641	0.000252417
4923.97771	0.000253582
4922.04901	0.000253321
4920.12030	0.000253491
4918.19160	0.000256362
4916.26290	0.000259067
4914.33420	0.000258128
4912.40549	0.000255238
4910.47679	0.000254646
4908.54809	0.000257498
4906.61939	0.000260557
4904.69068	0.000261759
4902.76198	0.000263115
4900.83328	0.000266005
4898.90458	0.000268869
4896.97587	0.000269207
4895.04717	0.000266966
4893.11847	0.000266039
4891.18977	0.000267735
4889.26106	0.000269232
4887.33236	0.000269831
4885.40366	0.000270038
4883.47496	0.000270214
4881.54625	0.000272072
4879.61755	0.000275336
4877.68885	0.000276904
4875.76014	0.000276470
4873.83144	0.000277547
4871.90274	0.000280521
4869.97404	0.000282482
4868.04533	0.000283429
4866.11663	0.000283656
4864.18793	0.000280470
4862.25923	0.000274986
4860.33052	0.000273970
4858.40182	0.000278982
4856.47312	0.000285041
4854.54442	0.000288284
4852.61571	0.000287885
4850.68701	0.000287068
4848.75831	0.000289752
4846.82961	0.000294344
4844.90090	0.000294985
4842.97220	0.000292679
4841.04350	0.000293794
4839.11480	0.000295864
4837.18609	0.000296078
4835.25739	0.000297537
4833.32869	0.000298518
4831.39999	0.000296927
4829.47128	0.000295194
4827.54258	0.000294679
4825.61388	0.000296299
4823.68517	0.000300405
4821.75647	0.000303418
4819.82777	0.000303199
4817.89907	0.000303255
4815.97036	0.000305359
4814.04166	0.000307449
4812.11296	0.000308989
4810.18426	0.000310124
4808.25555	0.000310564
4806.32685	0.000310567
4804.39815	0.000310465
4802.46945	0.000310782
4800.54074	0.000312893
4798.61204	0.000314837
4796.68334	0.000314087
4794.75464	0.000313304
4792.82593	0.000314180
4790.89723	0.000315183
4788.96853	0.000316211
4787.03983	0.000317813
4785.11112	0.000319447
4783.18242	0.000321435
4781.25372	0.000324208
4779.32502	0.000325446
4777.39631	0.000324264
4775.46761	0.000323480
4773.53891	0.000324167
4771.61020	0.000325814
4769.68150	0.000328111
4767.75280	0.000329480
4765.82410	0.000330701
4763.89539	0.000334002
4761.96669	0.000337200
4760.03799	0.000338428
4758.10929	0.000339878
4756.18058	0.000342633
4754.25188	0.000344370
4752.32318	0.000344804
4750.39448	0.000347083
4748.46577	0.000350902
4746.53707	0.000353078
4744.60837	0.000355044
4742.67967	0.000360002
4740.75096	0.000365005
4738.82226	0.000366537
4736.89356	0.000366887
4734.96486	0.000367148
4733.03615	0.000366683
4731.10745	0.000366286
4729.17875	0.000365760
4727.25005	0.000364866
4725.32134	0.000364962
4723.39264	0.000367980
4721.46394	0.000371722
4719.53523	0.000372352
4717.60653	0.000372105
4715.67783	0.000373630
4713.74913	0.000375808
4711.82042	0.000378259
4709.89172	0.000379877
4707.96302	0.000379923
4706.03432	0.000380281
4704.10561	0.000381463
4702.17691	0.000382771
4700.24821	0.000382172
4698.31951	0.000378012
4696.39080	0.000375615
4694.46210	0.000378501
4692.53340	0.000381561
4690.60470	0.000383393
4688.67599	0.000386787
4686.74729	0.000389577
4684.81859	0.000389697
4682.88989	0.000388807
4680.96118	0.000388168
4679.03248	0.000389326
4677.10378	0.000392685
4675.17508	0.000396045
4673.24637	0.000398267
4671.31767	0.000398783
4669.38897	0.000398144
4667.46027	0.000398367
4665.53156	0.000399320
4663.60286	0.000399754
4661.67416	0.000399286
4659.74545	0.000398269
4657.81675	0.000397764
4655.88805	0.000398134
4653.95935	0.000399008
4652.03064	0.000401011
4650.10194	0.000404558
4648.17324	0.000408106
4646.24454	0.000410604
4644.31583	0.000411885
4642.38713	0.000411267
4640.45843	0.000410200
4638.52973	0.000410735
4636.60102	0.000411686
4634.67232	0.000411436
4632.74362	0.000410653
4630.81492	0.000410905
4628.88621	0.000412743
4626.95751	0.000415778
4625.02881	0.000419420
4623.10011	0.000421880
4621.17140	0.000421772
4619.24270	0.000420648
4617.31400	0.000420258
4615.38530	0.000420218
4613.45659	0.000420122
4611.52789	0.000420100
4609.59919	0.000419827
4607.67048	0.000419011
4605.74178	0.000417289
4603.81308	0.000416818
4601.88438	0.000420776
4599.95567	0.000426606
4598.02697	0.000430520
4596.09827	0.000433603
4594.16957	0.000436103
4592.24086	0.000435809
4590.31216	0.000433279
4588.38346	0.000430526
4586.45476	0.000428202
4584.52605	0.000427895
4582.59735	0.000430673
4580.66865	0.000434191
4578.73995	0.000436525
4576.81124	0.000438328
4574.88254	0.000440033
4572.95384	0.000439867
4571.02514	0.000437832
4569.09643	0.000437682
4567.16773	0.000439684
4565.23903	0.000441337
4563.31033	0.000443752
4561.38162	0.000448034
4559.45292	0.000452533
4557.52422	0.000455204
4555.59551	0.000455102
4553.66681	0.000452967
4551.73811	0.000451008
4549.80941	0.000451183
4547.88070	0.000453958
4545.95200	0.000458542
4544.02330	0.000462019
4542.09460	0.000461767
4540.16589	0.000460764
4538.23719	0.000462866
4536.30849	0.000465270
4534.37979	0.000463982
4532.45108	0.000461176
4530.52238	0.000461579
4528.59368	0.000464897
4526.66498	0.000467787
4524.73627	0.000471000
4522.80757	0.000474533
4520.87887	0.000474924
4518.95017	0.000473359
4517.02146	0.000473823
4515.09276	0.000476448
4513.16406	0.000478575
4511.23536	0.000478945
4509.30665	0.000479231
4507.37795	0.000480713
4505.44925	0.000482588
4503.52055	0.000483733
4501.59184	0.000484097
4499.66314	0.000484043
4497.73444	0.000483346
4495.80573	0.000482859
4493.87703	0.000483316
4491.94833	0.000484720
4490.01963	0.000488692
4488.09092	0.000493474
4486.16222	0.000494779
4484.23352	0.000493265
4482.30482	0.000492760
4480.37611	0.000495375
4478.44741	0.000499053
4476.51871	0.000500957
4474.59001	0.000501732
4472.66130	0.000501958
4470.73260	0.000502053
4468.80390	0.000503779
4466.87520	0.000506833
4464.94649	0.000508888
4463.01779	0.000507808
4461.08909	0.000505269
4459.16039	0.000505380
4457.23168	0.000508199
4455.30298	0.000511688
4453.37428	0.000515942
4451.44558	0.000521159
4449.51687	0.000524975
4447.58817	0.000525538
4445.65947	0.000523739
4443.73076	0.000521375
4441.80206	0.000521061
4439.87336	0.000523588
4437.94466	0.000526045
4436.01595	0.000527006
4434.08725	0.000526569
4432.15855	0.000524949
4430.22985	0.000525152
4428.30114	0.000528906
4426.37244	0.000532728
4424.44374	0.000532792
4422.51504	0.000530935
4420.58633	0.000531903
4418.65763	0.000535701
4416.72893	0.000539529
4414.80023	0.000542556
4412.87152	0.000544424
4410.94282	0.000544926
4409.01412	0.000545953
4407.08542	0.000548997
4405.15671	0.000552329
4403.22801	0.000555047
4401.29931	0.000557279
4399.37061	0.000557003
4397.44190	0.000554519
4395.51320	0.000553999
4393.58450	0.000556851
4391.65579	0.000560707
4389.72709	0.000564759
4387.79839	0.000567910
4385.86969	0.000566991
4383.94098	0.000563710
4382.01228	0.000562806
4380.08358	0.000564180
4378.15488	0.000566870
4376.22617	0.000571531
4374.29747	0.000574959
4372.36877	0.000575119
4370.44007	0.000575410
4368.51136	0.000576302
4366.58266	0.000577008
4364.65396	0.000580434
4362.72526	0.000585506
4360.79655	0.000586891
4358.86785	0.000584834
4356.93915	0.000584120
4355.01045	0.000586014
4353.08174	0.000588112
4351.15304	0.000588565
4349.22434	0.000589258
4347.29564	0.000592844
4345.36693	0.000597496
4343.43823	0.000600764
4341.50953	0.000601787
4339.58082	0.000600650
4337.65212	0.000600556
4335.72342	0.000603098
4333.79472	0.000605414
4331.86601	0.000606582
4329.93731	0.000607935
4328.00861	0.000608761
4326.07991	0.000610150
4324.15120	0.000614161
4322.22250	0.000617636
4320.29380	0.000618340
4318.36510	0.000620447
4316.43639	0.000626534
4314.50769	0.000631514
4312.57899	0.000631321
4310.65029	0.000629592
4308.72158	0.000629471
4306.79288	0.000629759
4304.86418	0.000629753
4302.93548	0.000631152
4301.00677	0.000634583
4299.07807	0.000636319
4297.14937	0.000635505
4295.22067	0.000637119
4293.29196	0.000641048
4291.36326	0.000642666
4289.43456	0.000643251
4287.50586	0.000646012
4285.57715	0.000649512
4283.64845	0.000651691
4281.71975	0.000652560
4279.79104	0.000653317
4277.86234	0.000655503
4275.93364	0.000659314
4274.00494	0.000663389
4272.07623	0.000665694
4270.14753	0.000664862
4268.21883	0.000662670
4266.29013	0.000662471
4264.36142	0.000664295
4262.43272	0.000666861
4260.50402	0.000670669
4258.57532	0.000673993
4256.64661	0.000674579
4254.71791	0.000674624
4252.78921	0.000676110
4250.86051	0.000679016
4248.93180	0.000683976
4247.00310	0.000688941
4245.07440	0.000690663
4243.14570	0.000689868
4241.21699	0.000689926
4239.28829	0.000692647
4237.35959	0.000696222
4235.43089	0.000698933
4233.50218	0.000701889
4231.57348	0.000706902
4229.64478	0.000713555
4227.71607	0.000717441
4225.78737	0.000716304
4223.85867	0.000714168
4221.92997	0.000714346
4220.00126	0.000716482
4218.07256	0.000719259
4216.14386	0.000720552
4214.21516	0.000720359
4212.28645	0.000722399
4210.35775	0.000727143
4208.42905	0.000730712
4206.50035	0.000733220
4204.57164	0.000736852
4202.64294	0.000739776
4200.71424	0.000741555
4198.78554	0.000744548
4196.85683	0.000747852
4194.92813	0.000748266
4192.99943	0.000745809
4191.07073	0.000744222
4189.14202	0.000746330
4187.21332	0.000751516
4185.28462	0.000756063
4183.35592	0.000756759
4181.42721	0.000756011
4179.49851	0.000757909
4177.56981	0.000761751
4175.64110	0.000765257
4173.71240	0.000769846
4171.78370	0.000775595
4169.85500	0.000778464
4167.92629	0.000778597
4165.99759	0.000779529
4164.06889	0.000781487
4162.14019	0.000782576
4160.21148	0.000782778
4158.28278	0.000784651
4156.35408	0.000788877
4154.42538	0.000792600
4152.49667	0.000793866
4150.56797	0.000794921
4148.63927	0.000798545
4146.71057	0.000803181
4144.78186	0.000805917
4142.85316	0.000806884
4140.92446	0.000808087
4138.99576	0.000810633
4137.06705	0.000814346
4135.13835	0.000817122
4133.20965	0.000817196
4131.28095	0.000817647
4129.35224	0.000822056
4127.42354	0.000828116
4125.49484	0.000831565
4123.56613	0.000833256
4121.63743	0.000836382
4119.70873	0.000840254
4117.78003	0.000842509
4115.85132	0.000843187
4113.92262	0.000844742
4111.99392	0.000849142
4110.06522	0.000854912
4108.13651	0.000857434
4106.20781	0.000856778
4104.27911	0.000860459
4102.35041	0.000867776
4100.42170	0.000869880
4098.49300	0.000868965
4096.56430	0.000871475
4094.63560	0.000874822
4092.70689	0.000876231
4090.77819	0.000876983
4088.84949	0.000877257
4086.92079	0.000878217
4084.99208	0.000883827
4083.06338	0.000892879
4081.13468	0.000898365
4079.20598	0.000900015
4077.27727	0.000902360
4075.34857	0.000904365
4073.41987	0.000904919
4071.49117	0.000906638
4069.56246	0.000909682
4067.63376	0.000912254
4065.70506	0.000915314
4063.77635	0.000920061
4061.84765	0.000924118
4059.91895	0.000926251
4057.99025	0.000929109
4056.06154	0.000933668
4054.13284	0.000936966
4052.20414	0.000936708
4050.27544	0.000937067
4048.34673	0.000942287
4046.41803	0.000948054
4044.48933	0.000952529
4042.56063	0.000959678
4040.63192	0.000967519
4038.70322	0.000971870
4036.77452	0.000973338
4034.84582	0.000973988
4032.91711	0.000974729
4030.98841	0.000976233
4029.05971	0.000978956
4027.13101	0.000980817
4025.20230	0.000982454
4023.27360	0.000986796
4021.34490	0.000989793
4019.41620	0.000990437
4017.48749	0.000994427
4015.55879	0.000999467
4013.63009	0.001000705
4011.70138	0.001001210
4009.77268	0.001004447
4007.84398	0.001009139
4005.91528	0.001014567
4003.98657	0.001020647
4002.05787	0.001024946
4000.12917	0.001027271
3998.20047	0.001028537
3996.27176	0.001028166
3994.34306	0.001028473
3992.41436	0.001030879
3990.48566	0.001034263
3988.55695	0.001041817
3986.62825	0.001053520
3984.69955	0.001061637
3982.77085	0.001065599
3980.84214	0.001070838
3978.91344	0.001074306
3976.98474	0.001068293
3975.05604	0.001056132
3973.12733	0.001050648
3971.19863	0.001055719
3969.26993	0.001067072
3967.34123	0.001081025
3965.41252	0.001088348
3963.48382	0.001080831
3961.55512	0.001070020
3959.62641	0.001071726
3957.69771	0.001080042
3955.76901	0.001084681
3953.84031	0.001082106
3951.91160	0.001064209
3949.98290	0.001036058
3948.05420	0.001027884
3946.12550	0.001041915
3944.19679	0.001040375
3942.26809	0.001035271
3940.33939	0.001065400
3938.41069	0.001106060
3936.48198	0.001114836
3934.55328	0.001080356
3932.62458	0.001029244
3930.69588	0.001016841
3928.76717	0.001047497
3926.83847	0.001061267
3924.90977	0.001045388
3922.98107	0.001044618
3921.05236	0.001050649
3919.12366	0.001029907
3917.19496	0.001018177
3915.26626	0.001065195
3913.33755	0.001143756
3911.40885	0.001192027
3909.48015	0.001187820
3907.55145	0.001115052
3905.62274	0.000973899
3903.69404	0.000842211
3901.76534	0.000795269
3899.83663	0.000837831
3897.90793	0.000951874
3895.97923	0.001072032
3894.05053	0.001088544
3892.12182	0.001020895
3890.19312	0.001005637
3888.26442	0.001029613
3886.33572	0.000994406
3884.40701	0.000954987
3882.47831	0.000951673
3880.54961	0.000957136
3878.62091	0.001019772
3876.69220	0.001083213
3874.76350	0.001042728
3872.83480	0.000948288
3870.90610	0.000867235
3868.97739	0.000854000
3867.04869	0.000903952
3865.11999	0.000921384
3863.19129	0.000932840
3861.26258	0.001014887
3859.33388	0.001090131
3857.40518	0.001027935
3855.47648	0.000817187
3853.54777	0.000637807
3851.61907	0.000696489
3849.69037	0.000945147
3847.76166	0.001153503
3845.83296	0.001191582
3843.90426	0.001100950
3841.97556	0.000975784
3840.04685	0.000858646
3838.11815	0.000794683
3836.18945	0.000836628
3834.26075	0.000937567
3832.33204	0.001025759
3830.40334	0.001100692
3828.47464	0.001146985
3826.54594	0.001144504
3824.61723	0.001094968
3822.68853	0.000968141
3820.75983	0.000853404
3818.83113	0.000867151
3816.90242	0.000928136
3814.97372	0.001020052
3813.04502	0.001190062
3811.11632	0.001305001
3809.18761	0.001245928
3807.25891	0.001112173
3805.33021	0.001045977
3803.40151	0.000989161
3801.47280	0.000915390
3799.54410	0.000951579
3797.61540	0.001065363
3795.68669	0.001176321
3793.75799	0.001306443
3791.82929	0.001413329
3789.90059	0.001447724
3787.97188	0.001426515
3786.04318	0.001377682
3784.11448	0.001346051
3782.18578	0.001328472
3780.25707	0.001288018
3778.32837	0.001290726
3776.39967	0.001378972
3774.47097	0.001445098
3772.54226	0.001392002
3770.61356	0.001268828
3768.68486	0.001203051
3766.75616	0.001218956
3764.82745	0.001266874
3762.89875	0.001305364
3760.97005	0.001262060
3759.04135	0.001177355
3757.11264	0.001162454
3755.18394	0.001142822
3753.25524	0.000990005
3751.32654	0.000794281
3749.39783	0.000744598
3747.46913	0.000797960
3745.54043	0.000795983
3743.61172	0.000820847
3741.68302	0.000974657
3739.75432	0.001083387
3737.82562	0.000996293
3735.89691	0.000833334
3733.96821	0.000785124
3732.03951	0.000902609
3730.11081	0.001084101
3728.18210	0.001178111
3726.25340	0.001155182
3724.32470	0.001122234
3722.39600	0.001146592
3720.46729	0.001223126
3718.53859	0.001329147
3716.60989	0.001396690
3714.68119	0.001326083
3712.75248	0.001127317
3710.82378	0.000999991
3708.89508	0.001087373
3706.96638	0.001282948
3705.03767	0.001395103
3703.10897	0.001367299
3701.18027	0.001334482
3699.25157	0.001399634
3697.32286	0.001481801
3695.39416	0.001487611
3693.46546	0.001388430
3691.53676	0.001196623
3689.60805	0.001042836
3687.67935	0.001095331
3685.75065	0.001317948
3683.82194	0.001503893
3681.89324	0.001529468
3679.96454	0.001412572
3678.03584	0.001194335
3676.10713	0.000977729
3674.17843	0.000941556
3672.24973	0.001023321
3670.32103	0.001055370
3668.39232	0.001166174
3666.46362	0.001424928
3664.53492	0.001636990
3662.60622	0.001711962
3660.67751	0.001701990
3658.74881	0.001608679
3656.82011	0.001469649
3654.89141	0.001402565
3652.96270	0.001327861
3651.03400	0.001100709
3649.10530	0.000896503
3647.17660	0.000964431
3645.24789	0.001249945
3643.31919	0.001508247
3641.39049	0.001619192
3639.46179	0.001643432
3637.53308	0.001638575
3635.60438	0.001597850
3633.67568	0.001511381
3631.74697	0.001345927
3629.81827	0.001126698
3627.88957	0.001073071
3625.96087	0.001278983
3624.03216	0.001488219
3622.10346	0.001480411
3620.17476	0.001327715
3618.24606	0.001245941
3616.31735	0.001291392
3614.38865	0.001330751
3612.45995	0.001332032
3610.53125	0.001337528
3608.60254	0.001351262
3606.67384	0.001430302
3604.74514	0.001565114
3602.81644	0.001623666
3600.88773	0.001587688
3598.95903	0.001551480
3597.03033	0.001527492
3595.10163	0.001508015
3593.17292	0.001540044
3591.24422	0.001568251
3589.31552	0.001475306
3587.38682	0.001367932
3585.45811	0.001444858
3583.52941	0.001638115
3581.60071	0.001761047
3579.67200	0.001788899
3577.74330	0.001788335
3575.81460	0.001794462
3573.88590	0.001811420
3571.95719	0.001799989
3570.02849	0.001672586
3568.09979	0.001454630
3566.17109	0.001357366
3564.24238	0.001481441
3562.31368	0.001668343
3560.38498	0.001780106
3558.45628	0.001835734
3556.52757	0.001860370
3554.59887	0.001835681
3552.67017	0.001792761
3550.74147	0.001788091
3548.81276	0.001783285
3546.88406	0.001737756
3544.95536	0.001729245
3543.02666	0.001806652
3541.09795	0.001898759
3539.16925	0.001932397
3537.24055	0.001920722
3535.31185	0.001919877
3533.38314	0.001932845
3531.45444	0.001910737
3529.52574	0.001847897
3527.59704	0.001799911
3525.66833	0.001793862
3523.73963	0.001812845
3521.81093	0.001857320
3519.88222	0.001919676
3517.95352	0.001969321
3516.02482	0.001999332
3514.09612	0.002007238
3512.16741	0.001977045
3510.23871	0.001930220
3508.31001	0.001919130
3506.38131	0.001930970
3504.45260	0.001913293
3502.52390	0.001899673
3500.59520	0.001940164
3498.66650	0.001989497
3496.73779	0.002003741
3494.80909	0.002010878
3492.88039	0.002030475
3490.95169	0.002037419
3489.02298	0.002023154
3487.09428	0.002014333
3485.16558	0.002013294
3483.23688	0.001999723
3481.30817	0.001994278
3479.37947	0.002022312
3477.45077	0.002052350
3475.52207	0.002057723
3473.59336	0.002060289
3471.66466	0.002075878
3469.73596	0.002090860
3467.80725	0.002094612
3465.87855	0.002090175
3463.94985	0.002077745
3462.02115	0.002066850
3460.09244	0.002073424
3458.16374	0.002087577
3456.23504	0.002095391
3454.30634	0.002101656
3452.37763	0.002109221
3450.44893	0.002100397
3448.52023	0.002059550
3446.59153	0.002023818
3444.66282	0.002033067
3442.73412	0.002064979
3440.80542	0.002096205
3438.87672	0.002127895
3436.94801	0.002152199
3435.01931	0.002160377
3433.09061	0.002156110
3431.16191	0.002153834
3429.23320	0.002159334
3427.30450	0.002163201
3425.37580	0.002157504
3423.44710	0.002136983
3421.51839	0.002110383
3419.58969	0.002106564
3417.66099	0.002133918
3415.73228	0.002167180
3413.80358	0.002188318
3411.87488	0.002198361
3409.94618	0.002200210
3408.01747	0.002195897
3406.08877	0.002191173
3404.16007	0.002195036
3402.23137	0.002208724
3400.30266	0.002218497
3398.37396	0.002213813
3396.44526	0.002205527
3394.51656	0.002204831
3392.58785	0.002210503
3390.65915	0.002221980
3388.73045	0.002228581
3386.80175	0.002218734
3384.87304	0.002207871
3382.94434	0.002215849
3381.01564	0.002236095
3379.08694	0.002251475
3377.15823	0.002257028
3375.22953	0.002257177
3373.30083	0.002260678
3371.37213	0.002269319
3369.44342	0.002271958
3367.51472	0.002263436
3365.58602	0.002251662
3363.65731	0.002246075
3361.72861	0.002249351
3359.79991	0.002258095
3357.87121	0.002265501
3355.94250	0.002269311
3354.01380	0.002279337
3352.08510	0.002298849
3350.15640	0.002312859
3348.22769	0.002312378
3346.29899	0.002309376
3344.37029	0.002314109
3342.44159	0.002320228
3340.51288	0.002323282
3338.58418	0.002323646
3336.65548	0.002319577
3334.72678	0.002317082
3332.79807	0.002321044
3330.86937	0.002325297
3328.94067	0.002328889
3327.01197	0.002337273
3325.08326	0.002346421
3323.15456	0.002348967
3321.22586	0.002347942
3319.29716	0.002348403
3317.36845	0.002349240
3315.43975	0.002349488
3313.51105	0.002351476
3311.58235	0.002358239
3309.65364	0.002371248
3307.72494	0.002391327
3305.79624	0.002411191
3303.86753	0.002415497
3301.93883	0.002405086
3300.01013	0.002397617
3298.08143	0.002404000
3296.15272	0.002418079
3294.22402	0.002424820
3292.29532	0.002422291
3290.36662	0.002419910
3288.43791	0.002420661
3286.50921	0.002422941
3284.58051	0.002425029
3282.65181	0.002427127
3280.72310	0.002429371
3278.79440	0.002429436
3276.86570	0.002430264
3274.93700	0.002437534
3273.00829	0.002452449
3271.07959	0.002470793
3269.15089	0.002482445
3267.22219	0.002482263
3265.29348	0.002477275
3263.36478	0.002475868
3261.43608	0.002478036
3259.50738	0.002480817
3257.57867	0.002484539
3255.64997	0.002487838
3253.72127	0.002492016
3251.79256	0.002502877
3249.86386	0.002518616
3247.93516	0.002528668
3246.00646	0.002526530
3244.07775	0.002522890
3242.14905	0.002528771
3240.22035	0.002536328
3238.29165	0.002542225
3236.36294	0.002556652
3234.43424	0.002577306
3232.50554	0.002587593
3230.57684	0.002582995
3228.64813	0.002576088
3226.71943	0.002576722
3224.79073	0.002582760
3222.86203	0.002586879
3220.93332	0.002589390
3219.00462	0.002596186
3217.07592	0.002602477
3215.14722	0.002602816
3213.21851	0.002604671
3211.28981	0.002610925
3209.36111	0.002619801
3207.43241	0.002636031
3205.50370	0.002655785
3203.57500	0.002669769
3201.64630	0.002675681
3199.71759	0.002670706
3197.78889	0.002662122
3195.86019	0.002668301
3193.93149	0.002687465
3192.00278	0.002703131
3190.07408	0.002711382
3188.14538	0.002713048
3186.21668	0.002710987
3184.28797	0.002717530
3182.35927	0.002734224
3180.43057	0.002743972
3178.50187	0.002742500
3176.57316	0.002746010
3174.64446	0.002759235
3172.71576	0.002773056
3170.78706	0.002784189
3168.85835	0.002793794
3166.92965	0.002803017
3165.00095	0.002812268
3163.07225	0.002820413
3161.14354	0.002827463
3159.21484	0.002836042
3157.28614	0.002848753
3155.35744	0.002865918
3153.42873	0.002883983
3151.50003	0.002894383
3149.57133	0.002893754
3147.64263	0.002891294
3145.71392	0.002894466
3143.78522	0.002902079
3141.85652	0.002917511
3139.92781	0.002939537
3137.99911	0.002949280
3136.07041	0.002937480
3134.14171	0.002922862
3132.21300	0.002929768
3130.28430	0.002953856
3128.35560	0.002968119
3126.42690	0.002967360
3124.49819	0.002966552
3122.56949	0.002976183
3120.64079	0.002997819
3118.71209	0.003018395
3116.78338	0.003029345
3114.85468	0.003038556
3112.92598	0.003050663
3110.99728	0.003064633
3109.06857	0.003078307
3107.13987	0.003086886
3105.21117	0.003086781
3103.28247	0.003081283
3101.35376	0.003083905
3099.42506	0.003098867
3097.49636	0.003110011
3095.56766	0.003116356
3093.63895	0.003136899
3091.71025	0.003169682
3089.78155	0.003195758
3087.85284	0.003209961
3085.92414	0.003219028
3083.99544	0.003224500
3082.06674	0.003225243
3080.13803	0.003230473
3078.20933	0.003245994
3076.28063	0.003261912
3074.35193	0.003272271
3072.42322	0.003283013
3070.49452	0.003296429
3068.56582	0.003303979
3066.63712	0.003301992
3064.70841	0.003304680
3062.77971	0.003321538
3060.85101	0.003340034
3058.92231	0.003348536
3056.99360	0.003354128
3055.06490	0.003370458
3053.13620	0.003395497
3051.20750	0.003412310
3049.27879	0.003419613
3047.35009	0.003435843
3045.42139	0.003464614
3043.49269	0.003489361
3041.56398	0.003502287
3039.63528	0.003506914
3037.70658	0.003507382
3035.77787	0.003509267
3033.84917	0.003509555
3031.92047	0.003508261
3029.99177	0.003519824
3028.06306	0.003543187
3026.13436	0.003565097
3024.20566	0.003584635
3022.27696	0.003603162
3020.34825	0.003618713
3018.41955	0.003630452
3016.49085	0.003637533
3014.56215	0.003642024
3012.63344	0.003650635
3010.70474	0.003667238
3008.77604	0.003686754
3006.84734	0.003701227
3004.91863	0.003711670
3002.98993	0.003726550
3001.06123	0.003746920
2999.13253	0.003766014
2997.20382	0.003777375
2995.27512	0.003782912
2993.34642	0.003795167
2991.41772	0.003813525
2989.48901	0.003824227
2987.56031	0.003831224
2985.63161	0.003847562
2983.70290	0.003870564
2981.77420	0.003888828
2979.84550	0.003899840
2977.91680	0.003910563
2975.98809	0.003923420
2974.05939	0.003934386
2972.13069	0.003943721
2970.20199	0.003953036
2968.27328	0.003960562
2966.34458	0.003968829
2964.41588	0.003984296
2962.48718	0.004006121
2960.55847	0.004025209
2958.62977	0.004038013
2956.70107	0.004051832
2954.77237	0.004072895
2952.84366	0.004096976
2950.91496	0.004116344
2948.98626	0.004133400
2947.05756	0.004155519
2945.12885	0.004179100
2943.20015	0.004194180
2941.27145	0.004200414
2939.34275	0.004205509
2937.41404	0.004213054
2935.48534	0.004222233
2933.55664	0.004234804
2931.62794	0.004254363
2929.69923	0.004275192
2927.77053	0.004287507
2925.84183	0.004296910
2923.91312	0.004312663
2921.98442	0.004333727
2920.05572	0.004358254
2918.12702	0.004384940
2916.19831	0.004413164
2914.26961	0.004442802
2912.34091	0.004469112
2910.41221	0.004487947
2908.48350	0.004503601
2906.55480	0.004523625
2904.62610	0.004546697
2902.69740	0.004567388
2900.76869	0.004587524
2898.83999	0.004609518
2896.91129	0.004630212
2894.98259	0.004648866
2893.05388	0.004669908
2891.12518	0.004693727
2889.19648	0.004714740
2887.26778	0.004731538
2885.33907	0.004748771
2883.41037	0.004768522
2881.48167	0.004788792
2879.55297	0.004807626
2877.62426	0.004825222
2875.69556	0.004844875
2873.76686	0.004866502
2871.83815	0.004883727
2869.90945	0.004895872
2867.98075	0.004909658
2866.05205	0.004926371
2864.12334	0.004943059
2862.19464	0.004960242
2860.26594	0.004977221
2858.33724	0.004992430
2856.40853	0.005009516
2854.47983	0.005030114
2852.55113	0.005050506
2850.62243	0.005070866
2848.69372	0.005093603
2846.76502	0.005117370
2844.83632	0.005141839
2842.90762	0.005169742
2840.97891	0.005201088
2839.05021	0.005229616
2837.12151	0.005250255
2835.19281	0.005266946
2833.26410	0.005285170
2831.33540	0.005304283
2829.40670	0.005321985
2827.47800	0.005340109
2825.54929	0.005360545
2823.62059	0.005380348
2821.69189	0.005397859
2819.76318	0.005416316
2817.83448	0.005438957
2815.90578	0.005464092
2813.97708	0.005488096
2812.04837	0.005511333
2810.11967	0.005532288
2808.19097	0.005547220
2806.26227	0.005560706
2804.33356	0.005578902
2802.40486	0.005599457
2800.47616	0.005620308
2798.54746	0.005642994
2796.61875	0.005665739
2794.69005	0.005685448
2792.76135	0.005703893
2790.83265	0.005726170
2788.90394	0.005749689
2786.97524	0.005766561
2785.04654	0.005778438
2783.11784	0.005790882
2781.18913	0.005804135
2779.26043	0.005819402
2777.33173	0.005839658
2775.40303	0.005862381
2773.47432	0.005882153
2771.54562	0.005898925
2769.61692	0.005915234
2767.68822	0.005931515
2765.75951	0.005947775
2763.83081	0.005963973
2761.90211	0.005979931
2759.97340	0.005997273
2758.04470	0.006016893
2756.11600	0.006035899
2754.18730	0.006053451
2752.25859	0.006071862
2750.32989	0.006090431
2748.40119	0.006106707
2746.47249	0.006121461
2744.54378	0.006136794
2742.61508	0.006151909
2740.68638	0.006166452
2738.75768	0.006180956
2736.82897	0.006194178
2734.90027	0.006206379
2732.97157	0.006219196
2731.04287	0.006234729
2729.11416	0.006254495
2727.18546	0.006274048
2725.25676	0.006288217
2723.32806	0.006302091
2721.39935	0.006321462
2719.47065	0.006340608
2717.54195	0.006352944
2715.61325	0.006360603
2713.68454	0.006371809
2711.75584	0.006390265
2709.82714	0.006407686
2707.89843	0.006418131
2705.96973	0.006427546
2704.04103	0.006442133
2702.11233	0.006460246
2700.18362	0.006477095
2698.25492	0.006491419
2696.32622	0.006503816
2694.39752	0.006514531
2692.46881	0.006525923
2690.54011	0.006539645
2688.61141	0.006552821
2686.68271	0.006563983
2684.75400	0.006576821
2682.82530	0.006592005
2680.89660	0.006606115
2678.96790	0.006618848
2677.03919	0.006629390
2675.11049	0.006635874
2673.18179	0.006643342
2671.25309	0.006656394
2669.32438	0.006671437
2667.39568	0.006684470
2665.46698	0.006693798
2663.53828	0.006699676
2661.60957	0.006706253
2659.68087	0.006716471
2657.75217	0.006728442
2655.82346	0.006739287
2653.89476	0.006748968
2651.96606	0.006758305
2650.03736	0.006766370
2648.10865	0.006774747
2646.17995	0.006785545
2644.25125	0.006795486
2642.32255	0.006803396
2640.39384	0.006811702
2638.46514	0.006819401
2636.53644	0.006826143
2634.60774	0.006833464
2632.67903	0.006841286
2630.75033	0.006849501
2628.82163	0.006857444
2626.89293	0.006863952
2624.96422	0.006869226
2623.03552	0.006874336
2621.10682	0.006881236
2619.17812	0.006889767
2617.24941	0.006897317
2615.32071	0.006904984
2613.39201	0.006913610
2611.46331	0.006919491
2609.53460	0.006923015
2607.60590	0.006929828
2605.67720	0.006939443
2603.74849	0.006945149
2601.81979	0.006947191
2599.89109	0.006950338
2597.96239	0.006955737
2596.03368	0.006961780
2594.10498	0.006962879
2592.17628	0.006958514
2590.24758	0.006957118
2588.31887	0.006962195
2586.39017	0.006969248
2584.46147	0.006975542
2582.53277	0.006982511
2580.60406	0.006989188
2578.67536	0.006992744
2576.74666	0.006992323
2574.81796	0.006990505
2572.88925	0.006991426
2570.96055	0.006994199
2569.03185	0.006995611
2567.10315	0.006995274
2565.17444	0.006996246
2563.24574	0.007000021
2561.31704	0.007002707
2559.38834	0.007004119
2557.45963	0.007006582
2555.53093	0.007008486
2553.60223	0.007009517
2551.67353	0.007009691
2549.74482	0.007007708
2547.81612	0.007005998
2545.88742	0.007006440
2543.95871	0.007005177
2542.03001	0.006999943
2540.10131	0.006995500
2538.17261	0.006996994
2536.24390	0.007001947
2534.31520	0.007006647
2532.38650	0.007011850
2530.45780	0.007014483
2528.52909	0.007009183
2526.60039	0.006999038
2524.67169	0.006993173
2522.74299	0.006992483
2520.81428	0.006991233
2518.88558	0.006990377
2516.95688	0.006991087
2515.02818	0.006990696
2513.09947	0.006989338
2511.17077	0.006987016
2509.24207	0.006983075
2507.31337	0.006979250
2505.38466	0.006978405
2503.45596	0.006981036
2501.52726	0.006982587
2499.59856	0.006979148
2497.66985	0.006974581
2495.74115	0.006973450
2493.81245	0.006972690
2491.88374	0.006968753
2489.95504	0.006962925
2488.02634	0.006956856
2486.09764	0.006951856
2484.16893	0.006949478
2482.24023	0.006948176
2480.31153	0.006944512
2478.38283	0.006939500
2476.45412	0.006936494
2474.52542	0.006935069
2472.59672	0.006934891
2470.66802	0.006935743
2468.73931	0.006934994
2466.81061	0.006934396
2464.88191	0.006934947
2462.95321	0.006930919
2461.02450	0.006921247
2459.09580	0.006912087
2457.16710	0.006909050
2455.23840	0.006912095
2453.30969	0.006914469
2451.38099	0.006911197
2449.45229	0.006904641
2447.52359	0.006898480
2445.59488	0.006894500
2443.66618	0.006892966
2441.73748	0.006892275
2439.80877	0.006891082
2437.88007	0.006888017
2435.95137	0.006882643
2434.02267	0.006878335
2432.09396	0.006877369
2430.16526	0.006876583
2428.23656	0.006872895
2426.30786	0.006868048
2424.37915	0.006863667
2422.45045	0.006858414
2420.52175	0.006855296
2418.59305	0.006858590
2416.66434	0.006861991
2414.73564	0.006859974
2412.80694	0.006858625
2410.87824	0.006859706
2408.94953	0.006856258
2407.02083	0.006847468
2405.09213	0.006840847
2403.16343	0.006840322
2401.23472	0.006842200
2399.30602	0.006841847
2397.37732	0.006839561
2395.44862	0.006837575
2393.51991	0.006834149
2391.59121	0.006823945
2389.66251	0.006789573
2387.73381	0.006695288
2385.80510	0.006494855
2383.87640	0.006141124
2381.94770	0.005611941
2380.01899	0.004943245
2378.09029	0.004219140
2376.16159	0.003518293
2374.23289	0.002887484
2372.30418	0.002348095
2370.37548	0.001903826
2368.44678	0.001552162
2366.51808	0.001286070
2364.58937	0.001099525
2362.66067	0.000987282
2360.73197	0.000941464
2358.80327	0.000963783
2356.87456	0.001070700
2354.94586	0.001292286
2353.01716	0.001676716
2351.08846	0.002205111
2349.15975	0.002587433
2347.23105	0.002484399
2345.30235	0.002054323
2343.37365	0.001724616
2341.44494	0.001612970
2339.51624	0.001611731
2337.58754	0.001650059
2335.65884	0.001704725
2333.73013	0.001757793
2331.80143	0.001804226
2329.87273	0.001877921
2327.94402	0.002007354
2326.01532	0.002167054
2324.08662	0.002324054
2322.15792	0.002503339
2320.22921	0.002756825
2318.30051	0.003082884
2316.37181	0.003413151
2314.44311	0.003685381
2312.51440	0.003917177
2310.58570	0.004165838
2308.65700	0.004451787
2306.72830	0.004759601
2304.79959	0.005055454
2302.87089	0.005306132
2300.94219	0.005511062
2299.01349	0.005690983
2297.08478	0.005856269
2295.15608	0.006009444
2293.22738	0.006151970
2291.29868	0.006284181
2289.36997	0.006413753
2287.44127	0.006546184
2285.51257	0.006663885
2283.58387	0.006734648
2281.65516	0.006748058
2279.72646	0.006727722
2277.79776	0.006699456
2275.86905	0.006674035
2273.94035	0.006659614
2272.01165	0.006659465
2270.08295	0.006666980
2268.15424	0.006678609
2266.22554	0.006697031
2264.29684	0.006722226
2262.36814	0.006752281
2260.43943	0.006785408
2258.51073	0.006816582
2256.58203	0.006843106
2254.65333	0.006869273
2252.72462	0.006897000
2250.79592	0.006923200
2248.86722	0.006947561
2246.93852	0.006971703
2245.00981	0.006993991
2243.08111	0.007012194
2241.15241	0.007028111
2239.22371	0.007043483
2237.29500	0.007058671
2235.36630	0.007075801
2233.43760	0.007092799
2231.50890	0.007105613
2229.58019	0.007117042
2227.65149	0.007130192
2225.72279	0.007142827
2223.79408	0.007154478
2221.86538	0.007167584
2219.93668	0.007179350
2218.00798	0.007185476
2216.07927	0.007189025
2214.15057	0.007194178
2212.22187	0.007200851
2210.29317	0.007209977
2208.36446	0.007222044
2206.43576	0.007233585
2204.50706	0.007244443
2202.57836	0.007257912
2200.64965	0.007272965
2198.72095	0.007284574
2196.79225	0.007290242
2194.86355	0.007295962
2192.93484	0.007309071
2191.00614	0.007327718
2189.07744	0.007343836
2187.14874	0.007354499
2185.22003	0.007364283
2183.29133	0.007374716
2181.36263	0.007385912
2179.43393	0.007399585
2177.50522	0.007413523
2175.57652	0.007425395
2173.64782	0.007435829
2171.71912	0.007447976
2169.79041	0.007463531
2167.86171	0.007479240
2165.93301	0.007492064
2164.00430	0.007501855
2162.07560	0.007511321
2160.14690	0.007525179
2158.21820	0.007543391
2156.28949	0.007559237
2154.36079	0.007570674
2152.43209	0.007582201
2150.50339	0.007594458
2148.57468	0.007605849
2146.64598	0.007616504
2144.71728	0.007627022
2142.78858	0.007640135
2140.85987	0.007656067
2138.93117	0.007670058
2137.00247	0.007684770
2135.07377	0.007705603
2133.14506	0.007726806
2131.21636	0.007744532
2129.28766	0.007761174
2127.35896	0.007777111
2125.43025	0.007793751
2123.50155	0.007810689
2121.57285	0.007827091
2119.64415	0.007845093
2117.71544	0.007860858
2115.78674	0.007871700
2113.85804	0.007888475
2111.92933	0.007914417
2110.00063	0.007937517
2108.07193	0.007956158
2106.14323	0.007975686
2104.21452	0.007994520
2102.28582	0.008011620
2100.35712	0.008029042
2098.42842	0.008048339
2096.49971	0.008068939
2094.57101	0.008084738
2092.64231	0.008085785
2090.71361	0.008081981
2088.78490	0.008101618
2086.85620	0.008143624
2084.92750	0.008180560
2082.99880	0.008203993
2081.07009	0.008223076
2079.14139	0.008243982
2077.21269	0.008267204
2075.28399	0.008293402
2073.35528	0.008325925
2071.42658	0.008361280
2069.49788	0.008380463
2067.56918	0.008359808
2065.64047	0.008325635
2063.71177	0.008346653
2061.78307	0.008417180
2059.85436	0.008477855
2057.92566	0.008520029
2055.99696	0.008554382
2054.06826	0.008582735
2052.13955	0.008612039
2050.21085	0.008641610
2048.28215	0.008663541
2046.35345	0.008674468
2044.42474	0.008670131
2042.49604	0.008658435
2040.56734	0.008682759
2038.63864	0.008752903
2036.70993	0.008820794
2034.78123	0.008866241
2032.85253	0.008901729
2030.92383	0.008930739
2028.99512	0.008951385
2027.06642	0.008972099
2025.13772	0.008997757
2023.20902	0.009020066
2021.28031	0.009012419
2019.35161	0.008943863
2017.42291	0.008891037
2015.49421	0.008972399
2013.56550	0.009124886
2011.63680	0.009214484
2009.70810	0.009243850
2007.77940	0.009274168
2005.85069	0.009322925
2003.92199	0.009371575
2001.99329	0.009400467
2000.06458	0.009416507
1998.13588	0.009441027
1996.20718	0.009429296
1994.27848	0.009278030
1992.34977	0.009101681
1990.42107	0.009148218
1988.49237	0.009361540
1986.56367	0.009552963
1984.63496	0.009682922
1982.70626	0.009758592
1980.77756	0.009802511
1978.84886	0.009839065
1976.92015	0.009876944
1974.99145	0.009917500
1973.06275	0.009952856
1971.13405	0.009931107
1969.20534	0.009783266
1967.27664	0.009656105
1965.34794	0.009770576
1963.41924	0.010004775
1961.49053	0.010136850
1959.56183	0.010189446
1957.63313	0.010217480
1955.70443	0.010232169
1953.77572	0.010283142
1951.84702	0.010363456
1949.91832	0.010401610
1947.98961	0.010346626
1946.06091	0.010154193
1944.13221	0.009849411
1942.20351	0.009766857
1940.27480	0.010131173
1938.34610	0.010560891
1936.41740	0.010735381
1934.48870	0.010769725
1932.55999	0.010805354
1930.63129	0.010868292
1928.70259	0.010927092
1926.77389	0.010872195
1924.84518	0.010589100
1922.91648	0.010315345
1920.98778	0.010242403
1919.05908	0.010165604
1917.13037	0.010280454
1915.20167	0.010772694
1913.27297	0.011111628
1911.34427	0.011019947
1909.41556	0.010886733
1907.48686	0.011026517
1905.55816	0.011303645
1903.62946	0.011491437
1901.70075	0.011595049
1899.77205	0.011645438
1897.84335	0.011558389
1895.91464	0.011398796
1893.98594	0.011370240
1892.05724	0.011289749
1890.12854	0.011061506
1888.19983	0.011178399
1886.27113	0.011630706
1884.34243	0.011939935
1882.41373	0.012091443
1880.48502	0.012198752
1878.55632	0.012270629
1876.62762	0.012335988
1874.69892	0.012353491
1872.77021	0.012019970
1870.84151	0.011073150
1868.91281	0.010241004
1866.98411	0.010562698
1865.05540	0.011656742
1863.12670	0.012421208
1861.19800	0.012649023
1859.26930	0.012715086
1857.34059	0.012825312
1855.41189	0.012958808
1853.48319	0.013039034
1851.55449	0.012992084
1849.62578	0.012685955
1847.69708	0.011970265
1845.76838	0.010959333
1843.83967	0.010630634
1841.91097	0.011601121
1839.98227	0.012718714
1838.05357	0.013063123
1836.12486	0.013128560
1834.19616	0.013105467
1832.26746	0.012409028
1830.33876	0.011422899
1828.41005	0.011275280
1826.48135	0.011698387
1824.55265	0.012174601
1822.62395	0.012973528
1820.69524	0.013702928
1818.76654	0.013919004
1816.83784	0.013947882
1814.90914	0.013908785
1812.98043	0.013516808
1811.05173	0.013062903
1809.12303	0.013187349
1807.19433	0.013699342
1805.26562	0.013861596
1803.33692	0.013326276
1801.40822	0.012582341
1799.47952	0.012455918
1797.55081	0.012822405
1795.62211	0.012617381
1793.69341	0.011582768
1791.76471	0.011195328
1789.83600	0.012406516
1787.90730	0.013769653
1785.97860	0.014027637
1784.04989	0.013781766
1782.12119	0.013564531
1780.19249	0.013515050
1778.26379	0.013713157
1776.33508	0.013346784
1774.40638	0.011813536
1772.47768	0.010406267
1770.54898	0.010655222
1768.62027	0.012063559
1766.69157	0.013455778
1764.76287	0.013964713
1762.83417	0.013371356
1760.90546	0.013003569
1758.97676	0.013283309
1757.04806	0.013503464
1755.11936	0.013645029
1753.19065	0.013012921
1751.26195	0.011470707
1749.33325	0.010674395
1747.40455	0.011269402
1745.47584	0.012179174
1743.54714	0.012507988
1741.61844	0.012255350
1739.68974	0.012110228
1737.76103	0.012024973
1735.83233	0.010786983
1733.90363	0.009481626
1731.97492	0.010331254
1730.04622	0.012432223
1728.11752	0.014153052
1726.18882	0.015014737
1724.26011	0.014998557
1722.33141	0.014383201
1720.40271	0.012580818
1718.47401	0.009945721
1716.54530	0.008903727
1714.61660	0.010406519
1712.68790	0.012753062
1710.75920	0.014127862
1708.83049	0.013863830
1706.90179	0.012562265
1704.97309	0.011573390
1703.04439	0.010598388
1701.11568	0.008922564
1699.18698	0.008028243
1697.25828	0.008580815
1695.32958	0.010201745
1693.40087	0.012731494
1691.47217	0.014284438
1689.54347	0.013948321
1687.61477	0.012386732
1685.68606	0.009870229
1683.75736	0.008661265
1681.82866	0.010453999
1679.89995	0.012986539
1677.97125	0.013649687
1676.04255	0.012734354
1674.11385	0.012151033
1672.18514	0.011902915
1670.25644	0.011366395
1668.32774	0.012132218
1666.39904	0.014009010
1664.47033	0.014434468
1662.54163	0.013991620
1660.61293	0.014732255
1658.68423	0.015493281
1656.75552	0.013745387
1654.82682	0.009791795
1652.89812	0.007672078
1650.96942	0.009147299
1649.04071	0.010371555
1647.11201	0.010037180
1645.18331	0.011310506
1643.25461	0.014065800
1641.32590	0.015427233
1639.39720	0.014322596
1637.46850	0.011660300
1635.53980	0.010331344
1633.61109	0.012272807
1631.68239	0.014919782
1629.75369	0.015396005
1627.82499	0.014595653
1625.89628	0.013820605
1623.96758	0.013215747
1622.03888	0.013562607
1620.11017	0.014071671
1618.18147	0.013000960
1616.25277	0.012246891
1614.32407	0.013779644
1612.39536	0.015509797
1610.46666	0.015745729
1608.53796	0.015497776
1606.60926	0.015644722
1604.68055	0.015870146
1602.75185	0.015938444
1600.82315	0.016098350
1598.89445	0.016268615
1596.96574	0.016130835
1595.03704	0.015883889
1593.10834	0.015901625
1591.17964	0.016084455
1589.25093	0.016240075
1587.32223	0.016367275
1585.39353	0.016411446
1583.46483	0.016341832
1581.53612	0.016061541
1579.60742	0.014834417
1577.67872	0.012516943
1575.75002	0.011421934
1573.82131	0.012587097
1571.89261	0.013110772
1569.96391	0.012210345
1568.03520	0.012282968
1566.10650	0.013199715
1564.17780	0.013225006
1562.24910	0.011276069
1560.32039	0.007730859
1558.39169	0.005958942
1556.46299	0.007598628
1554.53429	0.010159086
1552.60558	0.011801256
1550.67688	0.012558125
1548.74818	0.012831885
1546.81948	0.012213144
1544.89077	0.010188507
1542.96207	0.007681389
1541.03337	0.006050070
1539.10467	0.006775315
1537.17596	0.009346152
1535.24726	0.010680916
1533.31856	0.010671632
1531.38986	0.011398747
1529.46115	0.011914488
1527.53245	0.011024931
1525.60375	0.009782428
1523.67505	0.008567221
1521.74634	0.007621310
1519.81764	0.007786182
1517.88894	0.008574309
1515.96023	0.009552101
1514.03153	0.010679210
1512.10283	0.010836973
1510.17413	0.009227771
1508.24542	0.006841217
1506.31672	0.006342850
1504.38802	0.008850090
1502.45932	0.011505786
1500.53061	0.011746562
1498.60191	0.010534598
1496.67321	0.010132087
1494.74451	0.011094095
1492.81580	0.011436643
1490.88710	0.010166991
1488.95840	0.009326005
1487.02970	0.010295158
1485.10099	0.011898676
1483.17229	0.012679333
1481.24359	0.012618357
1479.31489	0.012121484
1477.38618	0.010951123
1475.45748	0.009219334
1473.52878	0.007959270
1471.60008	0.008382273
1469.67137	0.010062909
1467.74267	0.010792512
1465.81397	0.010122586
1463.88526	0.009813408
1461.95656	0.009871244
1460.02786	0.008574497
1458.09916	0.006522671
1456.17045	0.006254137
1454.24175	0.007942012
1452.31305	0.009474624
1450.38435	0.009780709
1448.45564	0.009523723
1446.52694	0.009700695
1444.59824	0.010295669
1442.66954	0.010642556
1440.74083	0.010367626
1438.81213	0.009287659
1436.88343	0.008268015
1434.95473	0.008588126
1433.02602	0.009478090
1431.09732	0.009707358
1429.16862	0.009810656
1427.23992	0.010121591
1425.31121	0.010056794
1423.38251	0.009637380
1421.45381	0.008898154
1419.52511	0.008046560
1417.59640	0.008269569
1415.66770	0.009555670
1413.73900	0.010504745
1411.81030	0.010735700
1409.88159	0.010734884
1407.95289	0.010548073
1406.02419	0.010121154
1404.09548	0.009946861
1402.16678	0.009927536
1400.23808	0.009411781
1398.30938	0.008715175
1396.38067	0.008376027
1394.45197	0.008600481
1392.52327	0.009378722
1390.59457	0.009825857
1388.66586	0.009451482
1386.73716	0.009231506
1384.80846	0.009723570
1382.87976	0.010213153
1380.95105	0.010250619
1379.02235	0.010036834
1377.09365	0.009602880
1375.16495	0.009087327
1373.23624	0.009081177
1371.30754	0.009561606
1369.37884	0.009876464
1367.45014	0.009919486
1365.52143	0.009645114
1363.59273	0.009071855
1361.66403	0.008954722
1359.73533	0.009517539
1357.80662	0.010038819
1355.87792	0.010187570
1353.94922	0.010237217
1352.02051	0.010315556
1350.09181	0.010357846
1348.16311	0.010408752
1346.23441	0.010486963
1344.30570	0.010434682
1342.37700	0.010018945
1340.44830	0.009411322
1338.51960	0.009243982
1336.59089	0.009665657
1334.66219	0.010154264
1332.73349	0.010364127
1330.80479	0.010369411
1328.87608	0.010317255
1326.94738	0.010260282
1325.01868	0.010187975
1323.08998	0.010052647
1321.16127	0.009805123
1319.23257	0.009555469
1317.30387	0.009479135
1315.37517	0.009502532
1313.44646	0.009507176
1311.51776	0.009547250
1309.58906	0.009607615
1307.66036	0.009619697
1305.73165	0.009611138
1303.80295	0.009611609
1301.87425	0.009613303
1299.94554	0.009607119
1298.01684	0.009592419
1296.08814	0.009587832
1294.15944	0.009599352
1292.23073	0.009600016
1290.30203	0.009574533
1288.37333	0.009561776
1286.44463	0.009611132
1284.51592	0.009694185
1282.58722	0.009749869
1280.65852	0.009778263
1278.72982	0.009812510
1276.80111	0.009856758
1274.87241	0.009873240
1272.94371	0.009846119
1271.01501	0.009833378
1269.08630	0.009879697
1267.15760	0.009951660
1265.22890	0.010009157
1263.30020	0.010031478
1261.37149	0.010026436
1259.44279	0.010058209
1257.51409	0.010143617
1255.58539	0.010222500
1253.65668	0.010270033
1251.72798	0.010302905
1249.79928	0.010330010
1247.87057	0.010345747
1245.94187	0.010346638
1244.01317	0.010350277
1242.08447	0.010373609
1240.15576	0.010403657
1238.22706	0.010417648
1236.29836	0.010415073
1234.36966	0.010409445
1232.44095	0.010404425
1230.51225	0.010394141
1228.58355	0.010378834
1226.65485	0.010367302
1224.72614	0.010373959
1222.79744	0.010401357
1220.86874	0.010425571
1218.94004	0.010430712
1217.01133	0.010424140
1215.08263	0.010409158
1213.15393	0.010385435
1211.22523	0.010360980
1209.29652	0.010335736
1207.36782	0.010298711
1205.43912	0.010248467
1203.51042	0.010186192
1201.58171	0.010112766
1199.65301	0.010037243
1197.72431	0.009963986
1195.79561	0.009890351
1193.86690	0.009815119
1191.93820	0.009739514
1190.00950	0.009661036
1188.08079	0.009576609
1186.15209	0.009496003
1184.22339	0.009429302
1182.29469	0.009368182
1180.36598	0.009302363
1178.43728	0.009237028
1176.50858	0.009176960
1174.57988	0.009119704
1172.65117	0.009063988
1170.72247	0.009008007
1168.79377	0.008952150
1166.86507	0.008896070
1164.93636	0.008837943
1163.00766	0.008779634
1161.07896	0.008719508
1159.15026	0.008655143
1157.22155	0.008588100
1155.29285	0.008516721
1153.36415	0.008437390
1151.43545	0.008350633
1149.50674	0.008256742
1147.57804	0.008151267
1145.64934	0.008030497
1143.72064	0.007892237
1141.79193	0.007730585
1139.86323	0.007536246
1137.93453	0.007301808
1136.00582	0.007024182
1134.07712	0.006699052
1132.14842	0.006317885
1130.21972	0.005879183
1128.29101	0.005397150
1126.36231	0.004894379
1124.43361	0.004397655
1122.50491	0.003935521
1120.57620	0.003527957
1118.64750	0.003181740
1116.71880	0.002898430
1114.79010	0.002680098
1112.86139	0.002521025
1110.93269	0.002413141
1109.00399	0.002356679
1107.07529	0.002349799
1105.14658	0.002388182
1103.21788	0.002473476
1101.28918	0.002611901
1099.36048	0.002812280
1097.43177	0.003082171
1095.50307	0.003420103
1093.57437	0.003814479
1091.64567	0.004251011
1089.71696	0.004719356
1087.78826	0.005211637
1085.85956	0.005710032
1083.93085	0.006190885
1082.00215	0.006643943
1080.07345	0.007067564
1078.14475	0.007456640
1076.21604	0.007811431
1074.28734	0.008138916
1072.35864	0.008437776
1070.42994	0.008704907
1068.50123	0.008940062
1066.57253	0.009140108
1064.64383	0.009311590
1062.71513	0.009465251
1060.78642	0.009605709
1058.85772	0.009737119
1056.92902	0.009857010
1055.00032	0.009958853
1053.07161	0.010045768
1051.14291	0.010125687
1049.21421	0.010200422
1047.28551	0.010269888
1045.35680	0.010333589
1043.42810	0.010385634
1041.49940	0.010422542
1039.57070	0.010449719
1037.64199	0.010467196
1035.71329	0.010464692
1033.78459	0.010441016
1031.85589	0.010408185
1029.92718	0.010378819
1027.99848	0.010349395
1026.06978	0.010304669
1024.14107	0.010247262
1022.21237	0.010187370
1020.28367	0.010122829
1018.35497	0.010050952
1016.42626	0.009973163
1014.49756	0.009893655
1012.56886	0.009820698
1010.64016	0.009759834
1008.71145	0.009706201
1006.78275	0.009652006
1004.85405	0.009591293
1002.92535	0.009516917
1000.99664	0.009430168
999.06794	0.009339985
997.13924	0.009246258
995.21054	0.009140380
993.28183	0.009020936
991.35313	0.008891805
989.42443	0.008753823
987.49573	0.008610286
985.56702	0.008466003
983.63832	0.008325949
981.70962	0.008199563
979.78092	0.008094730
977.85221	0.008005768
975.92351	0.007919303
973.99481	0.007837922
972.06610	0.007773293
970.13740	0.007720382
968.20870	0.007673435
966.28000	0.007644732
964.35129	0.007638421
962.42259	0.007642257
960.49389	0.007654748
958.56519	0.007680839
956.63648	0.007714385
954.70778	0.007750687
952.77908	0.007794591
950.85038	0.007851155
948.92167	0.007919421
946.99297	0.007989703
945.06427	0.008048952
943.13557	0.008089120
941.20686	0.008106473
939.27816	0.008106246
937.34946	0.008099500
935.42076	0.008082483
933.49205	0.008043729
931.56335	0.007988563
929.63465	0.007932949
927.70595	0.007880072
925.77724	0.007819734
923.84854	0.007749108
921.91984	0.007672596
919.99113	0.007589820
918.06243	0.007499070
916.13373	0.007393261
914.20503	0.007259259
912.27632	0.007106484
910.34762	0.006974033
908.41892	0.006882410
906.49022	0.006817620
904.56151	0.006767429
902.63281	0.006729337
900.70411	0.006704750
898.77541	0.006696611
896.84670	0.006699487
894.91800	0.006705160
892.98930	0.006713791
891.06060	0.006729404
889.13189	0.006751285
887.20319	0.006777310
885.27449	0.006808498
883.34579	0.006845887
881.41708	0.006887982
879.48838	0.006936636
877.55968	0.006998785
875.63098	0.007073737
873.70227	0.007154024
871.77357	0.007238635
869.84487	0.007328949
867.91616	0.007421558
865.98746	0.007524559
864.05876	0.007665683
862.13006	0.007863767
860.20135	0.008104332
858.27265	0.008352246
856.34395	0.008581763
854.41525	0.008788722
852.48654	0.008976793
850.55784	0.009142296
848.62914	0.009288781
846.70044	0.009438105
844.77173	0.009604375
842.84303	0.009779401
840.91433	0.009936702
838.98563	0.010041310
837.05692	0.010064913
835.12822	0.009996817
833.19952	0.009839868
831.27082	0.009594960
829.34211	0.009282963
827.41341	0.008966440
825.48471	0.008710586
823.55601	0.008531023
821.62730	0.008405235
819.69860	0.008326357
817.76990	0.008308665
815.84120	0.008360634
813.91249	0.008473676
811.98379	0.008628836
810.05509	0.008813807
808.12638	0.009038187
806.19768	0.009315232
804.26898	0.009623633
802.34028	0.009898400
800.41157	0.010017594
798.48287	0.009886187
796.55417	0.009594713
794.62547	0.009330235
792.69676	0.009164123
790.76806	0.009073026
788.83936	0.009031393
786.91066	0.009006541
784.98195	0.008979490
783.05325	0.008951001
781.12455	0.008917586
779.19585	0.008879276
777.26714	0.008839106
775.33844	0.008801710
773.40974	0.008766839
771.48104	0.008726920
769.55233	0.008673794
767.62363	0.008605469
765.69493	0.008528560
763.76623	0.008447224
761.83752	0.008364290
759.90882	0.008276632
757.98012	0.008179235
756.05141	0.008071683
754.12271	0.007951709
752.19401	0.007812422
750.26531	0.007643801
748.33660	0.007445218
746.40790	0.007214251
744.47920	0.006940582
742.55050	0.006634788
740.62179	0.006367067
738.69309	0.006233829
736.76439	0.006266567
734.83569	0.006426643
732.90698	0.006649410
730.97828	0.006892690
729.04958	0.007152700
727.12088	0.007435936
725.19217	0.007725827
723.26347	0.007966327
721.33477	0.008191962
719.40607	0.008580615
717.47736	0.009205554
715.54866	0.009970119
713.61996	0.010806431
711.69126	0.011640945
709.76255	0.012343822
707.83385	0.012845574
705.90515	0.013162997
703.97644	0.013357184
702.04774	0.013433905
700.11904	0.013330856
698.19034	0.013025342
696.26163	0.012593357
694.33293	0.012156524
692.40423	0.011756002
690.47553	0.011386214
688.54682	0.011094050
686.61812	0.010921381
684.68942	0.010811081
682.76072	0.010711798
680.83201	0.010639863
678.90331	0.010608840
676.97461	0.010638440
675.04591	0.010723186
673.11720	0.010561639
671.18850	0.009328562
669.25980	0.007511901
667.33110	0.007540676
665.40239	0.009508517
663.47369	0.010842785
661.54499	0.010871785
659.61629	0.010589100
657.68758	0.010395292
655.75888	0.010283027
653.83018	0.010206225
651.90148	0.010118981
649.97277	0.010037893
648.04407	0.010057438
646.11537	0.010166012
644.18666	0.010221969
642.25796	0.010186287
640.32926	0.010117540
638.40056	0.010040298
636.47185	0.009912421
634.54315	0.009670652
632.61445	0.009095959
630.68575	0.007825837
628.75704	0.005843406
626.82834	0.003721912
624.89964	0.002121884
622.97094	0.001233187
621.04223	0.000859425
619.11353	0.000742118
617.18483	0.000716542
615.25613	0.000699767
613.32742	0.000647809
611.39872	0.000594825
609.47002	0.000606939
607.54132	0.000697348
605.61261	0.000847069
603.68391	0.001067469
601.75521	0.001397124
599.82651	0.001842013
597.89780	0.002348698
595.96910	0.002843416
594.04040	0.003293430
592.11169	0.003725291
590.18299	0.004169291
588.25429	0.004571463
586.32559	0.004871278
584.39688	0.005084733
582.46818	0.005232995
580.53948	0.005337018
578.61078	0.005389208
576.68207	0.005380117
574.75337	0.005356607
572.82467	0.005274062
570.89597	0.005039722
568.96726	0.004756318
567.03856	0.004623270
565.10986	0.004661403
563.18116	0.004750656
561.25245	0.004829294
559.32375	0.004905404
557.39505	0.004977989
555.46635	0.005040564
553.53764	0.005096056
551.60894	0.005137030
549.68024	0.005165854
547.75154	0.005209541
545.82283	0.005297970
543.89413	0.005433072
541.96543	0.005567288
540.03672	0.005657296
538.10802	0.005697223
536.17932	0.005714510
534.25062	0.005747045
532.32191	0.005784391
530.39321	0.005775998
528.46451	0.005662937
526.53581	0.005523303
524.60710	0.005531807
522.67840	0.005572431
520.74970	0.005374003
518.82100	0.004963609
516.89229	0.004584322
514.96359	0.004402572
513.03489	0.004446357
511.10619	0.004647719
509.17748	0.004861832
507.24878	0.005012671
505.32008	0.005104897
503.39138	0.005140180
501.46267	0.005247698
499.53397	0.005477573
497.60527	0.005646056
495.67657	0.005663335
493.74786	0.005592346
491.81916	0.005543369
489.89046	0.005576278
487.96175	0.005586988
486.03305	0.005513847
484.10435	0.005497476
482.17565	0.005646726
480.24694	0.005845841
478.31824	0.005953596
476.38954	0.005902152
474.46084	0.005666017
472.53213	0.005528697
470.60343	0.005754841
468.67473	0.006106567
466.74603	0.006357649
464.81732	0.006516653
462.88862	0.006547638
460.95992	0.006345365
459.03122	0.005976021
457.10251	0.005923303
455.17381	0.006311907
453.24511	0.006658689
451.31641	0.006838173
449.38770	0.006918662
447.45900	0.006839006
445.53030	0.006668217
443.60160	0.006518933
441.67289	0.006564368
439.74419	0.006750795
437.81549	0.006772232
435.88679	0.006689426
433.95808	0.006712567
432.02938	0.006765615
430.10068	0.006765792
428.17197	0.006666910
426.24327	0.006379751
424.31457	0.005986357
422.38587	0.005423746
420.45716	0.004632060
418.52846	0.004375370
416.59976	0.005108410
414.67106	0.005921056
412.74235	0.006146698
410.81365	0.006071990
408.88495	0.005950266
406.95625	0.005808874
405.02754	0.005636502
403.09884	0.005282566
401.17014	0.004540853
399.24144	0.003651699
